Wavelength,H2O_NH3_CO2_CH4_10_1_1_1_72K_b,H2O_CH4_10_0.6_a_V3,H2O_CH3OH_CO_NH3_120K_NASA,all
2.85208,0.1517176205317834,0.01634673919018612,0.05413328013994633,0.22219763986191585
2.854382,0.16036030812839536,0.01702532465007424,0.05759776379867039,0.23498339657714
2.8566830000000003,0.16823211980584613,0.01772394801344377,0.06133167516541153,0.2472877429847014
2.858985,0.1776207725251716,0.018421963143655348,0.0653755006936106,0.26141823636243755
2.861286,0.1859047446529377,0.019166068830947267,0.06909832648381438,0.2741691399676993
2.863588,0.19504157186635626,0.019944573482394458,0.07304286380476563,0.2880290091535164
2.8658900000000003,0.20439399069993974,0.020679690835241096,0.07712380191528548,0.3021974834504664
2.868191,0.21428402981322026,0.02147569908534489,0.08117678509366757,0.3169365139922327
2.870493,0.2241917329458,0.02228123632158993,0.08525724122259885,0.33173021048998874
2.872795,0.2342366719206276,0.023075825360991845,0.08948662966240181,0.3467991269440213
2.875096,0.24464349682930345,0.02387642915051128,0.09330103195443604,0.3618209579342508
2.877398,0.25492259729073874,0.024702984221436654,0.09725231701762746,0.3768778985298028
2.879699,0.2661908828329308,0.025524842380753403,0.10118335885409843,0.3928990840677827
2.882001,0.2771964727034933,0.02633963827729171,0.10509704935338048,0.4086331603341655
2.884303,0.28853677309359754,0.02709844293256746,0.10917172170324876,0.4248069377294138
2.886604,0.2995233401741455,0.027977576380924664,0.11302227261442666,0.4405231891694968
2.888906,0.3112676483902732,0.028839104858432264,0.11717791787117662,0.457284671119882
2.891208,0.32345083954745085,0.029645588235145237,0.12062264028476885,0.4737190680673649
2.893509,0.3341910162049532,0.030451666123086224,0.12488287554624106,0.4895255578742804
2.895811,0.34646252745862705,0.03125899426807413,0.12936578630163784,0.507087308028339
2.898112,0.35864662446294826,0.032085211431689534,0.13350745409231898,0.5242392899869568
2.900414,0.370559873171348,0.03285678898328226,0.13762646874833676,0.5410431309029671
2.902716,0.3822910466038942,0.03367151729835858,0.14196478502715915,0.5579273489294119
2.905017,0.3947142872541126,0.03442231355038797,0.14670651989562428,0.5758431207001249
2.907319,0.4061791416264551,0.035220957477509564,0.15083083634911645,0.5922309354530811
2.909621,0.4185770185566541,0.03589869816912275,0.155441954207076,0.6099176709328529
2.911922,0.4309513434611209,0.03650706648999845,0.16022851336327915,0.6276869233143986
2.9142240000000004,0.4433596376334709,0.0373665337329152,0.1650357977277914,0.6457619690941775
2.916525,0.4563173280983839,0.03804863342882705,0.1701795052411335,0.6645454667683445
2.918827,0.4692342554418373,0.03875631270810387,0.1753603253367964,0.6833508934867376
2.921129,0.4824319953997911,0.03944432578194024,0.1804423392068001,0.7023186603885314
2.92343,0.49773175365435296,0.04008479529726339,0.18568967276168727,0.7235062217133037
2.925732,0.5114766252870112,0.040741382991272265,0.19105846567689694,0.7432764739551805
2.928034,0.5269448711102735,0.041339546511386764,0.197035037375308,0.7653194549969682
2.930335,0.5403246863440809,0.04189118019491797,0.201983060363686,0.784198926902685
2.932637,0.5525336941448499,0.042560540785243815,0.20950390107191225,0.8045981360020059
2.9349380000000003,0.5641942115001991,0.04308791272391895,0.21547758088079172,0.8227597051049098
2.93724,0.5754434742523766,0.043638093406017264,0.22141029225464184,0.8404918599130357
2.939542,0.5851215451340663,0.04416921611583309,0.22824093532801934,0.8575316965779188
2.941843,0.5935789869898224,0.04448600421893294,0.2346488805482108,0.872713871756966
2.944145,0.6038254769540898,0.045082174085918615,0.2409888663644123,0.8898965174044208
2.946447,0.6125329326214656,0.04569530689986493,0.24702182990868735,0.9052500694300178
2.948748,0.6217689500971029,0.045905045967165284,0.2527583747759848,0.9204323708402528
2.95105,0.6311648495935768,0.04651121789052615,0.2595610629172245,0.9372371304013274
2.953351,0.6383278358811996,0.04695117320811122,0.2653554455751517,0.9506344546644624
2.955653,0.6470085690578405,0.04741505236324239,0.2694378296304373,0.9638614510515202
2.957955,0.6524368580655648,0.04773244869950018,0.2769456568357718,0.9771149636008368
2.960256,0.6574502690815431,0.04819690229705832,0.2817519772371069,0.9873991486157084
2.962558,0.6642694863781886,0.04847439178000828,0.2866156534474832,0.99935953160568
2.96486,0.6682366439433665,0.04889160593563215,0.29361161620574416,1.0107398660847426
2.967161,0.6732255970864689,0.0491920393249293,0.2986603733461357,1.021078009757534
2.969463,0.6766496992890885,0.04942043087574017,0.3045487424138363,1.030618872578665
2.971764,0.6831817630412286,0.04981848568688856,0.3094678465068994,1.0424680952350165
2.974066,0.6881353881457326,0.050199273434497316,0.31438213078407673,1.0527167923643068
2.976368,0.6934975503119777,0.050497442844817664,0.3194053429002735,1.0634003360570687
2.978669,0.6982020674520054,0.050838425111311585,0.3244237352005844,1.0734642277639013
2.980971,0.7046326763240679,0.05119309262385942,0.3294054969001631,1.0852312658480905
2.983273,0.7118667716124594,0.0514615937723641,0.3346104160752551,1.0979387814600785
2.985574,0.7150268193727339,0.05159939237337116,0.3396731506817155,1.1062993624278208
2.987876,0.7228673793237324,0.052028129168265116,0.3443117414902242,1.1192072499822217
2.990177,0.7307043158861564,0.052385026869058784,0.34940194904723376,1.1324912918024488
2.992479,0.7352752205725104,0.05257989801472032,0.3546097601118572,1.142464878699088
2.994781,0.7422602078964257,0.05288384564004118,0.3591943689824447,1.1543384225189115
2.997082,0.7498027441371959,0.05310848641971135,0.3639712885068764,1.1668825190637837
2.999384,0.7549547497661373,0.05340023559114218,0.3681351274506322,1.1764901128079115
3.001686,0.7619637420393567,0.053720436558072765,0.3735159699055565,1.189200148502986
3.003987,0.7691484686584247,0.053945516617245885,0.3786500377871269,1.2017440230627976
3.006289,0.7752950944509841,0.05413694110834568,0.3833488762942083,1.2127809118535382
3.0085900000000003,0.7822202958634251,0.05441067982015496,0.3881494129164804,1.2247803886000606
3.010892,0.7896532245998258,0.0546531958965227,0.3922645717197895,1.2365709922161379
3.013194,0.7963012367863403,0.05482951593086671,0.3973861080800569,1.248516860797264
3.015495,0.8047016102720527,0.05508865704688512,0.4015176542573777,1.2613079215763157
3.0177970000000003,0.8115393974351408,0.05527886507166902,0.40563618693180703,1.2724544494386167
3.020098,0.8185637891098004,0.05546255148537044,0.4102887552063846,1.2843150958015557
3.0224,0.8257557625060169,0.05553925644473436,0.4148155262863423,1.2961105452370936
3.024702,0.8305771339275626,0.05554094598128422,0.41875235190187626,1.3048704318107232
3.027003,0.8340397346337831,0.05561237958661254,0.4227928035589552,1.312444917779351
3.029305,0.8414907803130547,0.05592541691857168,0.4264780347852497,1.323894232016876
3.031607,0.8479485645994236,0.05604324519755933,0.43028665329822097,1.3342784630952038
3.0339080000000003,0.8513989363692058,0.05607615736955072,0.4347300415633541,1.342205135302111
3.03621,0.8559657647434142,0.056104169885547485,0.4377125436334967,1.3497824782624583
3.038511,0.8606046079655344,0.05602753250764559,0.4415346576309481,1.3581667981041279
3.040813,0.8655455512100287,0.05613431121759711,0.4451046952575715,1.3667845576851974
3.043115,0.8684329389800949,0.05610346028019655,0.4482689043866094,1.3728053036469008
3.045416,0.8736533360683744,0.05600269632036255,0.4513839513936118,1.3810399837823488
3.047718,0.8759736635265781,0.05591764505044231,0.4546334712638285,1.3865247798408489
3.05002,0.8790195745467655,0.055816610764760334,0.4577730993318486,1.3926092846433744
3.052321,0.8815265065165404,0.055694795179515,0.4610491281894373,1.3982704298854929
3.054623,0.8850103946306345,0.055543851984149975,0.4627688384974962,1.4033230851122809
3.056924,0.8846385443782071,0.05519928790017034,0.4660887276796458,1.4059265599580233
3.059226,0.8873601621210035,0.05508967076881505,0.4685121311070338,1.4109619639968525
3.061528,0.8890658722923084,0.05491402654909098,0.4714821016558732,1.4154620004972724
3.063829,0.8882764265067046,0.05461653295339061,0.4733767712805872,1.4162697307406824
3.066131,0.8903947500518966,0.054436800055215874,0.4754049498053383,1.4202364999124508
3.068433,0.8890667781394519,0.054073245580415735,0.4773005833932294,1.420440607113097
3.070734,0.8880277714657998,0.053773961075972515,0.478846780329399,1.4206485128711712
3.073036,0.8870526270157681,0.0534428119121988,0.4803100764323325,1.4208055153602994
3.075337,0.8855611496939129,0.05312727406614585,0.4818177148414156,1.4205061386014743
3.077639,0.8836072374052752,0.05279098871126056,0.482591295291089,1.418989521407625
3.079941,0.8789792643488775,0.05231994592115795,0.4832573938465085,1.4145566041165438
3.082242,0.8775371556963456,0.051983863310658636,0.4837634745145191,1.4132844935215234
3.084544,0.8731066573172419,0.05158536922000728,0.4852354462860472,1.4099274728232962
3.086846,0.8693297276522096,0.051206913032837316,0.4852229147647442,1.405759555449791
3.089147,0.8665872754251114,0.050761111918789716,0.4852017075748465,1.4025500949187475
3.0914490000000003,0.8612608942210366,0.05033142898342784,0.4840237445723533,1.3956160677768177
3.09375,0.8529017367803559,0.049745328754279367,0.4838979473777335,1.3865450129123686
3.096052,0.8514695924464031,0.04937609743667168,0.4825975610517405,1.3834432509348151
3.098354,0.8448501144449103,0.04891982119601492,0.4825546646903567,1.3763246003312821
3.100655,0.8398602554546644,0.048423232613278334,0.4811834270708423,1.3694669151387848
3.102957,0.8331551748981062,0.04792488691252991,0.4793528609974096,1.3604329228080458
3.105259,0.8271924360756874,0.04738413384437984,0.47847469054301395,1.353051260463081
3.10756,0.8199044428822547,0.04686003960661145,0.4767491964558922,1.3435136789447584
3.109862,0.8135621541066883,0.046315028906355735,0.4744568920205984,1.3343340750336423
3.112163,0.8068285393651083,0.0457560626341981,0.4730422760581116,1.325626878057418
3.114465,0.7990898872177594,0.04519777217666043,0.4706689987159362,1.3149566581103558
3.116767,0.7924291931712352,0.044619680350758334,0.4678494064227342,1.3048982799447275
3.119068,0.7846534012910007,0.04401641443026323,0.4661595789731673,1.2948293946944314
3.12137,0.7780828390352597,0.04344325605108673,0.4629765725621749,1.2845026676485212
3.123672,0.7703989906400958,0.042832387216117235,0.4605955835145821,1.2738269613707949
3.125973,0.7626114227469949,0.04220773176290083,0.4580367432608027,1.2628558977706985
3.128275,0.7547998499045904,0.04159247013290168,0.4550600249697232,1.2514523450072152
3.130576,0.7465783812297292,0.04096602377094242,0.451999923863819,1.2395443288644907
3.132878,0.7388537697131053,0.040319471924039764,0.4490256154806824,1.2281988571178275
3.13518,0.7305557569546142,0.03967602882438885,0.4460922755325751,1.2163240613115782
3.137481,0.7230607776888803,0.03902376634394763,0.4431656833267081,1.2052502273595358
3.139783,0.7142491495999962,0.03840134107897704,0.4402574064212072,1.1929078971001803
3.142085,0.7074747717369565,0.03774607122347708,0.436331184400622,1.1815520273610556
3.144386,0.697244134097701,0.03706714785627898,0.4332898805766725,1.1676011625306524
3.146688,0.6903288970038393,0.03641603426069168,0.4303603964812739,1.1571053277458048
3.148989,0.6810081828202801,0.03580182014335344,0.4269417010734651,1.1437517040370984
3.151291,0.6722065190499751,0.035091234861210865,0.4237302577487464,1.1310280116599325
3.153593,0.6629487612428926,0.034452083184396604,0.419856089739728,1.117256934167017
3.155894,0.6550348276732667,0.03379340046506591,0.41690636241760903,1.1057345905559417
3.158196,0.6459374048105926,0.03312414124693304,0.4130977439046377,1.0921592899621633
3.160498,0.6364835310969315,0.03246238357108158,0.4091503146941549,1.078096229362168
3.162799,0.6281823478734379,0.03181873772704468,0.4059176641795386,1.065918749780021
3.165101,0.6191886445087004,0.03112389892554685,0.4018198567134184,1.0521324001476655
3.167402,0.6094648283462613,0.030500865427418318,0.398631066523363,1.0385967602970427
3.1697040000000003,0.6009503181204616,0.029837722331595973,0.3946214616879532,1.0254095021400107
3.172006,0.5917804274863036,0.02910341595629328,0.3904701542655005,1.0113539977080972
3.174307,0.5819886727880983,0.02848511316050437,0.38679649059733207,0.9972702765459348
3.176609,0.5724700310036732,0.027865796642785542,0.3822943005783919,0.9826301282248506
3.1789110000000003,0.5638228141713436,0.02722431340553247,0.3785883441437885,0.9696354717206646
3.181212,0.5553377439777094,0.02655718300345244,0.3744360727581586,0.9563309997393205
3.183514,0.5455709000759517,0.025935771460411775,0.3704732201368413,0.9419798916732048
3.1858150000000003,0.5364485664168299,0.0252792851385959,0.3660775480489777,0.9278053996044036
3.188117,0.5280259996761006,0.024658853526754163,0.3617551371625785,0.9144399903654332
3.190419,0.5184887880252329,0.02401395742567037,0.3580067663481799,0.9005095117990831
3.19272,0.5090398964708613,0.023410894249561245,0.3532929864118525,0.8857437771322749
3.1950220000000003,0.500168482470503,0.02276147019052381,0.34870644961491065,0.8716364022759375
3.197323,0.4911358276785927,0.022169152466871837,0.34406159304575035,0.8573665731912149
3.199625,0.4821846991296019,0.02158007865339561,0.3394548130220881,0.8432195908050857
3.201927,0.4730007678647189,0.0209718454954439,0.33496949235874834,0.8289421057189108
3.204228,0.4641338831000781,0.02034898095097035,0.3305208022961408,0.8150036663471893
3.20653,0.4552090241182503,0.01977964092439656,0.32602246812990937,0.8010111331725562
3.208832,0.44572797499028266,0.019155965402379068,0.3207033193183235,0.7855872597109852
3.211133,0.4370073845393255,0.018621936689697475,0.31646670115469183,0.7720960223837148
3.213435,0.4283615264777112,0.018069356865698348,0.31115237215899183,0.7575832555024014
3.215736,0.4190752344856068,0.017515830901231294,0.3063137589912219,0.7429048243780602
3.218038,0.4105906172155444,0.016963453821618152,0.3019961679207085,0.7295502389578709
3.22034,0.40207384237188576,0.01644669217247618,0.2965039877188219,0.7150245222631839
3.222641,0.3929111985148761,0.015915738416315342,0.2920321625399624,0.7008590994711539
3.224943,0.3844234107798112,0.01538478466015449,0.28674434253163444,0.6865525379716002
3.227245,0.3758993891590043,0.014866299683731663,0.2816854637778826,0.6724511526206186
3.229546,0.3676344398212528,0.014372650894591853,0.2770324135217165,0.6590395042375612
3.231848,0.35887535086669464,0.013880522688346927,0.272166809384986,0.6449226829400276
3.234149,0.3510855183557352,0.013393091393710628,0.2670086424239864,0.6314872521734323
3.236451,0.34259138969066544,0.012908904009250072,0.2621459301767873,0.6176462238767029
3.238753,0.33450353346947803,0.012465873735144243,0.25723550175231863,0.6042049089569408
3.241054,0.32671234218780315,0.012018484456739769,0.2517013891522255,0.5904322157967684
3.2433560000000003,0.3188423422046395,0.011564708730176796,0.2470950911101517,0.577502142044968
3.245658,0.31144655320112424,0.011140026823002514,0.24211284742898445,0.5646994274531112
3.247959,0.3032649418005794,0.010728388137993195,0.23706023443588425,0.5510535643744569
3.250261,0.2960657216272146,0.010327832812750999,0.2325435849692867,0.5389371394092524
3.252562,0.28905446473613644,0.009960662729734155,0.22711599030027005,0.5261311177661406
3.254864,0.28247710862681885,0.009596601393969059,0.22203445841185493,0.5141081684326428
3.257166,0.2749314019210461,0.009251091169521492,0.21770047996732975,0.5018829730578973
3.259467,0.2688232746320875,0.008873952820860434,0.212573641809588,0.490270869262536
3.261769,0.26189127936607,0.008541080329805863,0.20756199725151725,0.4779943569473931
3.264071,0.2557994573256953,0.008229124301238632,0.203005825294656,0.4670344069215898
3.266372,0.2498987690326096,0.007926967584660622,0.19837350024679887,0.456199236864069
3.2686740000000003,0.2440315970838353,0.007626432823170485,0.19358838703536144,0.4452464169423672
3.270975,0.23813272048503675,0.007348740595834533,0.1887835125787921,0.4342649736596633
3.273277,0.23267589729229066,0.00706222898770828,0.18397815614063426,0.4237162824206331
3.275579,0.2276919263084777,0.006820118400112502,0.18000084407165942,0.4145128887802497
3.27788,0.22267760944535592,0.006560166306550142,0.1754600955256328,0.4046978712775389
3.280182,0.21770043231511965,0.006332551942552214,0.17086873891280513,0.39490172317047706
3.282484,0.21316893197951006,0.006118352498760221,0.1664084812920716,0.38569576577034187
3.284785,0.20853054168096152,0.005902970379383322,0.16239020078806735,0.3768237128484122
3.287087,0.20422097389552168,0.00571468842626627,0.15790343417996186,0.36783909650174973
3.289388,0.20017274301099608,0.005532928084231703,0.1543083335107322,0.36001400460596
3.29169,0.1964601284931558,0.005375801185094177,0.1504640483602059,0.3522999780384559
3.293992,0.19254369836801674,0.005226851642858003,0.1461652545716472,0.34393580458252193
3.296293,0.1891445069618448,0.0050980751670272285,0.14272776188188369,0.33697034401075576
3.298595,0.1860302044823194,0.00500092681540994,0.1389167334609695,0.3299478647586989
3.300897,0.1833357621538295,0.004921653760490236,0.13545851556289698,0.3237159314772167
3.3031980000000005,0.1805208421552474,0.004892864057680521,0.13199065803305288,0.31740436424598084
3.3055,0.17865434411596234,0.004904150161833624,0.12860377341009044,0.3121622676878864
3.307801,0.1771556200169586,0.0049688594116934865,0.1251629068492069,0.307287386277859
3.310103,0.1760237640110927,0.0051272703586089105,0.12251971981742575,0.30367075418712736
3.3124050000000005,0.17509391191823848,0.005404421934248906,0.11918392524285296,0.29968225909534035
3.314706,0.1746106424671545,0.005841369876775211,0.1169653639906122,0.2974173763345419
3.317008,0.17432711231122328,0.00637732466112366,0.1143650733202148,0.2950695102925617
3.31931,0.17323601942681713,0.006925883388134105,0.11251763789118176,0.292679540706133
3.321611,0.1711457771430752,0.0073612431663035395,0.11074346366361316,0.2892504839729919
3.323913,0.16819815053796303,0.0075730434681947215,0.10942283411089976,0.2851940281170575
3.326214,0.16577229188753573,0.007347929618290595,0.10820534861814282,0.28132557012396914
3.3285160000000005,0.16192380029816292,0.006711481199956129,0.10809979465024347,0.2767350761483625
3.330818,0.15716085601737625,0.005779465257588127,0.10746550687967013,0.2704058281546345
3.3331190000000004,0.15210034094993333,0.004787166651120913,0.10826222244559544,0.2651497300466497
3.335421,0.14769248874941834,0.003974600942828429,0.10896446962015874,0.2606315593124055
3.3377230000000004,0.14329188332605172,0.0034378689716670434,0.1101626758493724,0.2568924281470912
3.340024,0.140059367794293,0.0031207767519882195,0.11077045463257372,0.2539505991788549
3.3423260000000004,0.1372335776299883,0.0029042119570264146,0.11158403955409936,0.2517218291411141
3.344627,0.1345409469957855,0.0027753003182716496,0.11167465209275268,0.24899089940680985
3.3469290000000003,0.13177177227795275,0.0026684540268581327,0.1109772247340752,0.2454174510388861
3.349231,0.12960408006343724,0.002577083890241387,0.10968696002144243,0.24186812397512106
3.351532,0.1282163222395184,0.0025142669213173746,0.10777879491224814,0.2385093840730839
3.3538339999999995,0.12696489441070388,0.002453207070405223,0.10560216605821393,0.23502026753932306
3.356135,0.1257637410983564,0.002409650818149681,0.10309682576076712,0.2312702176772732
3.3584370000000003,0.124781802794748,0.0023502805037873943,0.10127252544798604,0.2284046087465214
3.360739,0.1230670341520076,0.002302534200888185,0.09974801768330263,0.2251175860361984
3.3630400000000003,0.1211951010298612,0.002260566112989518,0.09906312184592828,0.222518788988779
3.365342,0.11903873190464012,0.002224173495705408,0.09923663521781764,0.22049954061816315
3.3676440000000003,0.11789827035091048,0.0021746024933323427,0.10038278743546453,0.22045566027970734
3.3699449999999995,0.11615677921743528,0.0021401697384460763,0.10162678191559346,0.2199237308714748
