Wavelength,H2O_NH3_CO2_CH4_10_1_1_1_72K_b,d_NH3_CH3OH_50_10K_I10m_Baselined,H2O_CH3OH_CO_NH3_100K_NASA,all
2.85208,0.16155066465626045,8.880253661088148e-05,0.07097254521688233,0.23261201240975365
2.854382,0.17075349766112274,9.262027572095912e-05,0.07588310205869707,0.2467292199955408
2.8566830000000003,0.17913549313457985,9.627760562473096e-05,0.08091615756853582,0.2601479283087404
2.858985,0.1891326383687163,0.00010015950841733091,0.08587349539774555,0.2751062932748792
2.861286,0.19795350702288947,0.00010442639330506475,0.09162080495224427,0.2896787383684388
2.863588,0.20768250556639056,0.00010911034212919359,0.09642333147265196,0.3042149473811717
2.8658900000000003,0.21764106854288168,0.00011421135488971753,0.10119595674338447,0.3189512366411559
2.868191,0.22817209576718595,0.00011995400447546455,0.10596906429233756,0.3342611140639989
2.870493,0.23872193184209234,0.00012643453641021817,0.11098620462089763,0.3498345709994002
2.872795,0.2494178982178306,0.00013307547755127757,0.11518443653093467,0.36473541022631656
2.875096,0.260499204891802,0.000139106863708375,0.12001059468415012,0.3806489064396605
2.877398,0.2714445091075735,0.00014382289437376506,0.12423921012208293,0.39582754212403015
2.879699,0.2834431089570636,0.00014796145189645426,0.12859128878448087,0.4121823591934409
2.882001,0.2951619874386248,0.0001524529096730162,0.13274563337644624,0.4280600737247441
2.884303,0.30723726952518504,0.00015784265900489048,0.1366318312777764,0.4440269434619663
2.886604,0.3189358923214824,0.0001637457177969433,0.14066801770570286,0.4597676557449821
2.888906,0.3314413665807886,0.0001695846129064738,0.1448503344344612,0.4764612856281562
2.891208,0.34441416843582434,0.0001750385259208704,0.14868926907017568,0.4932784760319209
2.893509,0.3558504318801332,0.00017975455658626047,0.1524684012065399,0.5084985876432593
2.895811,0.3689172779881796,0.0001836364593788604,0.15626441308062392,0.5253653275281823
2.898112,0.3818910443996564,0.00018748628033019919,0.16077274988648566,0.5428512805664722
2.900414,0.3945764084352342,0.0001926514567732454,0.1645986630102448,0.5593677229022522
2.902716,0.407067896626144,0.0001992923979143048,0.16909880108635691,0.5763659901104152
2.905017,0.42029630593808026,0.00020432924699230638,0.17307229134560964,0.5935729265306822
2.907319,0.4325042145352966,0.00020410467410347832,0.1773423827105112,0.6100507019199113
2.909621,0.4457056162668811,0.0001995169708031329,0.18165395000238152,0.6275590832400657
2.911922,0.4588819395309962,0.00019772038769250814,0.18627851585939992,0.6453581757780886
2.9142240000000004,0.4720944336616539,0.0002056125206427527,0.1910000196387523,0.663300065821049
2.916525,0.4858919312738594,0.00022280838755873262,0.19613001307092506,0.6822447527323432
2.918827,0.4996460238462141,0.00024398240279109595,0.20106902432775325,0.7009590305767585
2.921129,0.5136991289153202,0.00026528474538850403,0.20585225971933827,0.719816673380047
2.92343,0.5299904872060784,0.0002902123360484227,0.21085010891907566,0.7411308084612025
2.925732,0.5446261843656298,0.00032450782435659907,0.21620098577626812,0.7611516779662545
2.928034,0.5610969501544391,0.00037333638675607936,0.22193382698414985,0.783404113525345
2.930335,0.5753439310682132,0.0004407724170870307,0.22638959546396975,0.8021742989492701
2.932637,0.5883442227818213,0.000530601572618269,0.2333401891787835,0.8222150135332231
2.9349380000000003,0.6007604755703225,0.0006430484262386231,0.238862757082498,0.8402662810790591
2.93724,0.6127388197345489,0.0007746160572506262,0.2444928730293989,0.8580063088211984
2.939542,0.6230441407516277,0.0009210375807665448,0.2504528672791677,0.874418045611562
2.941843,0.6320497219642782,0.0010723034623128984,0.25642684759733303,0.889548873023924
2.944145,0.6429603021481688,0.0012157734564327905,0.2621051913662906,0.9062812669708922
2.946447,0.6522321009385723,0.001341245537605174,0.2676383693908576,0.9212117158670351
2.948748,0.6620667184123775,0.0014460248311641115,0.2737560686187518,0.9372688118622934
2.95105,0.6720715800980431,0.001529116800030507,0.2794517744036498,0.9530524713017234
2.953351,0.6796988101563126,0.0015916122268072404,0.2850707979514777,0.9663612203345976
2.955653,0.6889421545317025,0.0016379384055883507,0.28892805915957376,0.9795081520968646
2.957955,0.6947222590051999,0.0016726188759916608,0.2953780480814389,0.9917729259626304
2.960256,0.7000605966286576,0.0016972577300802287,0.30045113268358464,1.0022089870423223
2.962558,0.7073217775175167,0.0017117266404890106,0.3039876788750036,1.0130211830330094
2.96486,0.7115460524514643,0.0017154481340753052,0.3103252969714765,1.023586797557016
2.967161,0.7168583470510115,0.001706240645633353,0.315636144736362,1.0342007324330071
2.969463,0.7205043703984991,0.001681505546021001,0.32039815988624204,1.042584035830762
2.971764,0.7274597868955185,0.0016398312342227586,0.3254968052340779,1.0545964233638192
2.974066,0.7327344637938615,0.0015825972294128553,0.33066104041991096,1.0649781014431854
2.976368,0.7384441556471559,0.0015116963602256992,0.334755582512526,1.0747114345199078
2.978669,0.743453579524187,0.0014309142839301068,0.33909319282830697,1.083977686636424
2.980971,0.7503009656997994,0.0013462503048419145,0.3444218848873534,1.0960691008919947
2.983273,0.7580039134386979,0.001263543318070653,0.3487435800218557,1.1080110367786242
2.985574,0.7613687685835948,0.0011867073082501825,0.35360590904161365,1.1161613849334586
2.987876,0.7697174868598328,0.0011188862958240976,0.3582135951609122,1.1290499683165691
2.990177,0.7780623469103062,0.0010621656004743726,0.3627855926918888,1.1419101052026694
2.992479,0.7829294987122698,0.0010156469306456957,0.3672273751033122,1.1511725207462278
2.994781,0.7903671934298565,0.0009776620305924862,0.3717535562033349,1.1630984116637841
2.997082,0.7983985726369611,0.000946638890092948,0.37627829046869604,1.1756235019957502
2.999384,0.8038844873959125,0.000921069662607806,0.3798365391800404,1.1846420962385606
3.001686,0.8113477428591892,0.0008995106652803088,0.3847326276752381,1.1969798811997077
3.003987,0.8189981222720458,0.0008816731615391057,0.3897237249798876,1.2096035204134723
3.006289,0.8255431200033626,0.0008680383790031143,0.3934975520558255,1.2199087104381912
3.0085900000000003,0.8329171539958344,0.0008589271360849457,0.3977112168689207,1.23148729800084
3.010892,0.8408318218735621,0.0008536336322768549,0.4015443641659884,1.2432298196718272
3.013194,0.8479107015950466,0.0008511312486584847,0.40559357210587016,1.2543554049495749
3.015495,0.8568555157519055,0.0008506179391983063,0.40956368641757895,1.2672698201086827
3.0177970000000003,0.8641364700478077,0.0008514841489123575,0.4128634340026994,1.2778513881994191
3.020098,0.8716161229705836,0.000853248650181721,0.4167144255939281,1.2891837972146931
3.0224,0.8792742188349695,0.0008552698061811739,0.41968091892863657,1.2998104075697872
3.024702,0.8844080704929067,0.0008566814071966647,0.4226912995814167,1.30795605148152
3.027003,0.8880950874891427,0.000856745570879187,0.4262345976679237,1.3151864307279455
3.029305,0.8960290464956927,0.0008555585427525242,0.4285963141140409,1.325480919152486
3.031607,0.9029053693645392,0.0008536336322768549,0.43176247063206413,1.3355214736288803
3.0339080000000003,0.9065793648488196,0.0008515162307536188,0.4347660993897565,1.3421969804693297
3.03621,0.9114421761467985,0.0008499121386905607,0.4367550147713754,1.3490471030568645
3.038511,0.9163816696818468,0.0008494950747541658,0.4390660920043332,1.3562972567609342
3.040813,0.921642842790014,0.0008506500210395673,0.4417924107851993,1.364285903596253
3.043115,0.9247173664461296,0.0008531524046579376,0.4436930692524544,1.3692635881032418
3.045416,0.9302761052163866,0.000856745570879187,0.4456188061871791,1.376751656974445
3.047718,0.932746816540352,0.0008610445376081821,0.4464970348268318,1.380104895904792
3.05002,0.9359901375736662,0.0008656964045910497,0.4486870602264272,1.3855428942046846
3.052321,0.9386595475245052,0.0008703161897326562,0.4496091761841517,1.3891390398983896
3.054623,0.942369231597108,0.0008752247114456133,0.4512648373153586,1.3945092936239123
3.056924,0.9419732811780224,0.0008808069518250547,0.4513617752376927,1.3942158633675399
3.059226,0.9448712910054105,0.0008871912382360248,0.4523692544404575,1.3981277366841038
3.061528,0.9466875507840662,0.0008937359338533006,0.453662242349798,1.4012435290677174
3.063829,0.9458469398456176,0.0008997352381691369,0.4543046369395934,1.4010513120233803
3.066131,0.9481025550832104,0.0009045795961995717,0.4546470544761961,1.403654189155606
3.068433,0.9466885153405072,0.0009080123532145153,0.4548293556435705,1.4024258833372922
3.070734,0.945582169102526,0.0009097447726426177,0.4548428594337463,1.401334773308915
3.073036,0.9445438240936452,0.0009097126908013567,0.4548438239901874,1.4002973607746338
3.075337,0.9429556819133176,0.0009079161076907318,0.4548438239901874,1.3987074220111957
3.077639,0.9408751336697908,0.0009045154325170492,0.4545915924808309,1.3963712415831389
3.079941,0.9359472148120356,0.0009000881384230098,0.4535532474719498,1.3904005504224084
3.082242,0.93441164095775,0.0008953079440750973,0.4535889360602717,1.3888958849620967
3.084544,0.929693995404162,0.0008907844044572745,0.4530164718124586,1.3836012516210778
3.086846,0.9256722773228526,0.0008869987471884578,0.4521816482126568,1.378740924282698
3.089147,0.9227520826973185,0.0008844001180463041,0.4511264234660559,1.3747629062814206
3.0914490000000003,0.9170804908234488,0.0008836622356972974,0.4495614306403155,1.3675255836994615
3.09375,0.9081795639846616,0.0008854588188079223,0.44865860581141376,1.3577236286148833
3.096052,0.9066546002512282,0.0008902710949970957,0.4468741763953153,1.3544190477415403
3.098354,0.8996061040576392,0.0008971366090269832,0.4458097883625236,1.3463130290291898
3.100655,0.8942928449016508,0.0009045795961995717,0.4438980374961955,1.339095461994046
3.102957,0.8871531981243749,0.0009110601281343252,0.44264845462670604,1.330712712879215
3.105259,0.8808040053506084,0.0009149420309269252,0.44041598874370064,1.322134936125236
3.10756,0.8730436665034624,0.0009145891306730524,0.4383528025161143,1.3123110581502495
3.109862,0.8662903245808605,0.0009099693455314461,0.4366392679984393,1.3038395619248313
3.112163,0.8591202942756888,0.0009026867675651633,0.4349850537018939,1.2950080347451478
3.114465,0.8508800885990785,0.0008944738162023073,0.4330414724730084,1.284816034888289
3.116767,0.843787705087418,0.0008861325374744064,0.4302167689351466,1.2748906065600392
3.119068,0.8355079525967211,0.0008781120771591173,0.4275507349318513,1.2639367996057316
3.12137,0.8285115424509534,0.0008708294991928349,0.4257214536412401,1.2551038255913862
3.123672,0.8203296924390319,0.0008647018675119537,0.42356663455174615,1.24476102885829
3.125973,0.8120374007146001,0.0008602424915766531,0.4202225173703336,1.2331201605765103
3.128275,0.8037195482444786,0.0008574834532281936,0.4183956474708251,1.222972679168532
3.130576,0.7949652339847437,0.0008555585427525242,0.4155429717961705,1.2113637643236668
3.132878,0.7867399789329709,0.0008536015504355936,0.4127973618864817,1.2003909423698882
3.13518,0.7779041596539602,0.0008513879033885738,0.4100589861501015,1.1888145337074505
3.137481,0.769923419660015,0.0008491100926590317,0.4073292914216913,1.1781018211743652
3.139783,0.760540696878881,0.0008469606092945343,0.4046888181640862,1.166076475652262
3.142085,0.7533272615338583,0.0008447148804062534,0.4015501515046352,1.1557221279188998
3.144386,0.7424335610876873,0.0008421162512640997,0.3980579749095085,1.1413336522484598
3.146688,0.7350701372160682,0.0008388759852967229,0.3954382396153877,1.1313472528167523
3.148989,0.7251453337150168,0.0008348336732978172,0.3929424498239527,1.1189226172122673
3.151291,0.7157732210547354,0.0008299572334261213,0.3890615569830488,1.1056647352712103
3.153593,0.7059154542263428,0.0008243108293641577,0.386574448199584,1.0933142132552909
3.155894,0.6974886068783729,0.0008183436068895827,0.38292311979167015,1.0812300702769329
3.158196,0.6878015665400612,0.0008123443025737463,0.3801910136721573,1.068804924514792
3.160498,0.6777349732421631,0.0008063449982579101,0.37675285223773397,1.055294170478155
3.162799,0.6688957780156084,0.0007999607118469399,0.3736455336626199,1.0433412723900752
3.165101,0.6593191793898066,0.0007929668704520078,0.3706433517395894,1.030755497999848
3.167402,0.6489651482724503,0.000785235146708069,0.3665439868647686,1.0162943702839269
3.1697040000000003,0.6398988000040085,0.0007766692950913403,0.363512868248504,1.0041883375476035
3.172006,0.6301345951504062,0.0007675259703319105,0.3601214878014759,0.9910236089222141
3.174307,0.6197082222999649,0.0007584147274137421,0.3562251620575139,0.9766917990848926
3.176609,0.6095726632165256,0.0007500734486858414,0.3531824687639557,0.9635052054291672
3.1789110000000003,0.6003650074294576,0.0007425021341482085,0.34973948454732684,0.9508469941109328
3.181212,0.5913300072453526,0.0007351233106581424,0.34628637248806604,0.9383515030440768
3.183514,0.5809301596970426,0.0007274236687554648,0.3424170543244557,0.9240746376902538
3.1858150000000003,0.5712165940565995,0.0007194994539639593,0.3386234538414746,0.910559547352038
3.188117,0.5622481482669329,0.0007117356483787592,0.33536807585264633,0.8983279597679581
3.190419,0.5520928157764504,0.0007044209885712155,0.3307931846523464,0.8835904214173679
3.19272,0.5420315275389785,0.0006976517200651116,0.3270806069104205,0.8698097861694641
3.1950220000000003,0.5325851440327298,0.0006915240883842307,0.3237282909992581,0.8570049591203722
3.197323,0.5229670694799591,0.0006859097661635282,0.3202809662786442,0.8439339455247669
3.199625,0.5134358050068906,0.0006806804260379597,0.3158883762457186,0.8300048616786471
3.201927,0.5036566495284505,0.0006756114951186969,0.31161008615106744,0.8159423471746367
3.204228,0.4942150888044074,0.0006710237918183514,0.3073583213585474,0.8022444339547731
3.20653,0.4847117964681316,0.0006674947892796242,0.3035439829120818,0.7889232741694929
3.208832,0.4746162664769994,0.0006654415514389103,0.2995198534396695,0.7748015614681079
3.211133,0.4653304816181996,0.0006645111780423366,0.2951369089711553,0.7611319017673972
3.213435,0.4561242726657933,0.0006640620322646807,0.2906874101082028,0.7474757448062608
3.215736,0.44623612230950505,0.0006638374593758524,0.28666955025265783,0.7335695100215387
3.218038,0.4372016044036206,0.0006640941141059418,0.2817290921611679,0.7195947906788944
3.22034,0.4281328447440759,0.0006651207330262987,0.2776070602099805,0.7064050256870826
3.222641,0.4183763563420025,0.0006668531524544012,0.2731112626378535,0.6921544721323104
3.224943,0.4093384624885741,0.0006686497355650259,0.2679841628750041,0.6779912750991433
3.227245,0.4002619863775003,0.000670093418421778,0.2634483362105701,0.6643804160064922
3.229546,0.3914613734085909,0.0006712804465484407,0.2584774945911845,0.6506101484463239
3.231848,0.3821345949010429,0.0006724995565163648,0.25404728685705463,0.6368543813146139
3.234149,0.3738398917855085,0.0006739753212143781,0.2492669451347931,0.6237808122415159
3.236451,0.3647952460369921,0.0006754831677536523,0.2443800199257861,0.6098507491305318
3.238753,0.3561832038523245,0.0006766701958803151,0.23932285050491905,0.5961827245531239
3.241054,0.34788705390212843,0.0006772476690230159,0.2342222760442008,0.5827865776153522
3.2433560000000003,0.3395069875415536,0.0006770230961341878,0.2297645784514987,0.5699485890891864
3.245658,0.3316318664779126,0.0006757719043250027,0.22457671163285786,0.5568843500150955
3.247959,0.3229199927015877,0.0006739753212143781,0.21935074483479225,0.5429447128575943
3.250261,0.3152541803856728,0.0006724674746751035,0.21418168686675348,0.5301083347271014
3.252562,0.3077885135312933,0.0006719862470561862,0.20931791101233374,0.5177784107906833
3.254864,0.30078486921221714,0.0006723391473100589,0.20497161968858266,0.5064288280481098
3.257166,0.2927501140575684,0.0006730449478178043,0.20000077806919705,0.4934239370745832
3.259467,0.28624610997499983,0.0006738469938493332,0.19505405036083975,0.4819740073296889
3.261769,0.2788648418092196,0.0006744565488332953,0.1901656783171712,0.469704976675224
3.264071,0.2723781997425915,0.0006747452854046456,0.1854118618970408,0.4584648069250369
3.266372,0.2660950790850426,0.0006747452854046456,0.1804882835432707,0.4472581079137179
3.2686740000000003,0.2598476470158158,0.0006745848761983399,0.17600550748309904,0.4365277393751131
3.270975,0.2535664554711492,0.0006744886306745563,0.171390587190492,0.4256315312923157
3.273277,0.24775596746975614,0.0006743282214682506,0.16668933909640346,0.4151196347876279
3.275579,0.24244897793063525,0.0006738469938493332,0.1620932276543985,0.4052160525788831
3.27788,0.23710967575073635,0.0006728524567702372,0.1578573780431572,0.3956399062506638
3.280182,0.231809920384924,0.0006712483647071798,0.15340739690198413,0.3858885656516153
3.282484,0.22698472678814965,0.0006690347176601598,0.14904663723161593,0.3767003987374258
3.284785,0.22204571553132146,0.0006662435974704392,0.14487878884947467,0.3675907479782666
3.287087,0.21745683826262505,0.0006629712496618013,0.14096895931533676,0.3590887688276236
3.289388,0.21314623552719586,0.0006593460015992906,0.1367268400872281,0.3505324216160232
3.29169,0.20919300095320686,0.0006552074440766012,0.13312181038848864,0.34297001878577216
3.293992,0.2050227411799628,0.0006502347586811221,0.12927081879725996,0.33494379473590385
3.296293,0.20140324313460628,0.0006442033725240246,0.12560550432094966,0.32765295082807994
3.298595,0.19808709808998656,0.0006374020221766594,0.1220487024442669,0.3207732025564301
3.300897,0.1952180249558326,0.0006303119352579437,0.11857388786508058,0.3144222247561711
3.3031980000000005,0.1922206658150077,0.0006231256028154447,0.11522253651035945,0.3080663279281827
3.3055,0.19023319726805052,0.0006156826156428562,0.11229414315507573,0.3031430230387691
3.307801,0.18863733863619386,0.0006077584008513506,0.10897317532825036,0.2982182723652955
3.310103,0.18743212536299653,0.0005996737768535393,0.10612146421003678,0.29415326334988684
3.3124050000000005,0.18644200817617215,0.0005924232807285178,0.10343083401749266,0.2904652654743933
3.314706,0.18592741731482704,0.0005867447948252932,0.10134739210464257,0.2878615542142949
3.317008,0.185625511148752,0.0005820287641599032,0.09903486803702308,0.2852424079499349
3.31931,0.18446370291540573,0.0005768635877168568,0.0974578182557685,0.2824983847588911
3.321611,0.18223798892748835,0.0005703830557821033,0.09616965312863364,0.2789780251119041
3.323913,0.17909932226803732,0.0005630363141332983,0.09520750807860216,0.2748698666607728
3.326214,0.17651624011867967,0.0005556895724844935,0.0950295474152129,0.27210147710637705
3.3285160000000005,0.1724183220785206,0.0005486957310895614,0.09507681068082847,0.2680438284904386
3.330818,0.16734668431103647,0.0005417981352184128,0.09630758469971586,0.2641960671459707
3.3331190000000004,0.16195818975263968,0.0005348042938234805,0.0975470397265734,0.2600400337730366
3.335421,0.1572646581100802,0.0005280029434761153,0.09882604156751752,0.2566187026210738
3.3377230000000004,0.15257884291904975,0.0005221319665253239,0.10008478772319776,0.2531857626087728
3.340024,0.14913682325886202,0.0005178009179550677,0.10131604402030572,0.2509706681971228
3.3423260000000004,0.14612788944074356,0.0005150097977653469,0.10192419685644087,0.24856709609494976
3.344627,0.14326074541947184,0.0005135019512260726,0.10199460947664367,0.2457688568473416
3.3469290000000003,0.1403120963789243,0.000513181132813461,0.1013498034957454,0.24217508100748314
3.349231,0.13800391281528993,0.0005141756698925569,0.09961987151857103,0.23813796000375356
3.351532,0.13652621234747214,0.000516645971669666,0.0975108688600309,0.2345537271791727
3.3538339999999995,0.13519367762404513,0.0005204316289384825,0.095274544751261,0.23098865400424465
3.356135,0.13391467578310107,0.0005249872503975667,0.09314432185101593,0.2275839848845145
3.3584370000000003,0.13286909660091148,0.0005297353629042178,0.09172401249144566,0.22512284445526132
3.360739,0.13104319125784425,0.0005339701659506905,0.09117180392889628,0.22274896535269126
