Wavelength,d_NH3_CH3OH_50_10K_I10m_Baselined,H2O_CH3OH_CO_NH3_120K_NASA,CO_CH3OH_10K,all
2.85208,0.0013596101461289404,0.055167360531909626,0.0035807651608670437,0.060107735838905614
2.854382,0.0014180615938852064,0.058698024451842724,0.003852392476910868,0.06396847852263879
2.8566830000000003,0.001474057098458436,0.06250326281963929,0.004152999922514521,0.06813031984061224
2.858985,0.0015334909234879161,0.06662433548077434,0.004494867213593185,0.07265269361785544
2.861286,0.0015988190121566839,0.07041827650992895,0.004875538406963824,0.07689263392904945
2.863588,0.0016705325531013466,0.07443816431192289,0.005291083993533579,0.08139978085855781
2.8658900000000003,0.0017486315463219036,0.0785970584980767,0.005737574464209593,0.0860832645086082
2.868191,0.0018365543122746055,0.08272746374330728,0.006210097932625794,0.09077411598820767
2.870493,0.0019357744168692762,0.08688586674082449,0.0067032513237794975,0.09552489248147326
2.872795,0.0020374504646469816,0.09119604702705332,0.0072096668081216,0.10044316429982192
2.875096,0.0021297939283291493,0.0950833138971633,0.007719520612919953,0.10493262843841243
2.877398,0.002201998657910419,0.09911007834006977,0.008225444908625448,0.10953752190660564
2.879699,0.0022653619920327576,0.10311621286023873,0.008732842770240763,0.11411441762251225
2.882001,0.002334128401157777,0.10710466458948978,0.009251537970498049,0.1186903309611456
2.884303,0.002416648092107799,0.1112571733233677,0.009781530509397295,0.1234553519248728
2.886604,0.002507026801243537,0.1151812793412232,0.010309558293750118,0.12799786443621686
2.888906,0.0025964231331060622,0.11941630776605115,0.010819412098548474,0.1328321429977057
2.891208,0.002679925201329299,0.12292683295188335,0.011305197660153069,0.1369119558133657
2.893509,0.0027521299309105685,0.1272684493108551,0.011770353299020158,0.1417909325407858
2.895811,0.002811563755940049,0.13183699481993935,0.012216843769696171,0.14686540234557555
2.898112,0.002870506392332922,0.13605777877430567,0.012642213128998077,0.15157049829563665
2.900414,0.002949587762826693,0.14025547686275147,0.013040075924649971,0.15624514055022815
2.902716,0.0030512638106044,0.14467666578085356,0.013408467402105427,0.1611363969935634
2.905017,0.0031283804265517423,0.14950897958779594,0.013756720145459984,0.1663940801598077
2.907319,0.003124942106095491,0.15371208075124435,0.01409662268199222,0.17093364553933207
2.909621,0.0030547021310606505,0.15841128243766622,0.014431122143521775,0.17589710671224865
2.911922,0.003027195567410643,0.16328927678781308,0.014748430002770076,0.1810649023579938
2.9142240000000004,0.0031480279720160326,0.16818839224933405,0.015036757732458543,0.18637317795380864
2.916525,0.0034113050812375327,0.1734303573792069,0.015285790371218437,0.19212745283166285
2.918827,0.003735489581398335,0.17871014403409852,0.01548373939177117,0.197929373007268
2.921129,0.004061638836105567,0.18388923701848564,0.015621763398657812,0.20357263925324906
2.92343,0.00444329240674942,0.18923680770522905,0.01570280952369801,0.2093829096356765
2.925732,0.0049683730592825995,0.1947081579283975,0.01573178965325784,0.21540832064093796
2.928034,0.005715962164198873,0.20079889702232773,0.015713615673703375,0.22222847486023
2.930335,0.006748440678347368,0.20584143956573805,0.015652217094127466,0.2282420973382129
2.932637,0.00812376886084774,0.21350594705135795,0.015551523423622971,0.23718123933582866
2.9349380000000003,0.009845385032156245,0.2195937390134685,0.015418902491739009,0.2448580265373637
2.93724,0.011859749630882684,0.2256397799414675,0.015265651637117537,0.2527651812094677
2.939542,0.01410153456835829,0.23260090529946584,0.015102577009763925,0.2618050168775881
2.941843,0.0164174889899616,0.2391312582231596,0.014937537627863874,0.27048628484098497
2.944145,0.018614084572869338,0.2455923535490917,0.014777410132329903,0.2789838482542909
2.946447,0.02053512333064039,0.2517405617135049,0.014625141654981647,0.286900826699127
2.948748,0.022139345417799758,0.25758668886640473,0.014468943668540537,0.294194977952745
2.95105,0.023411523986612604,0.2645193252834799,0.014297027645727987,0.3022278769158205
2.953351,0.024368359450723583,0.2704243950727725,0.0141089023979074,0.3089016569214035
2.955653,0.025077635841984487,0.2745847628248361,0.013925689036452886,0.31358808770327345
2.957955,0.02560861075815695,0.28223600821726763,0.013767526295465344,0.32161214527088994
2.960256,0.02598584363107134,0.28713414130151543,0.013636378929491202,0.326756363862078
2.962558,0.02620736970618122,0.2920907258335195,0.013519967222615278,0.331818062762316
2.96486,0.02626434758802767,0.2992203288938741,0.013406993836195605,0.33889167031809736
2.967161,0.026123376449321382,0.3043655298623353,0.0132920556952295,0.34378096200688624
2.969463,0.02574467001049717,0.3103663814357664,0.013170732101987504,0.3492817835482511
2.971764,0.02510661597154432,0.3153794526609803,0.013043023056469613,0.3535290916889942
2.974066,0.02423033544383693,0.3203876119998281,0.012916296388224932,0.35753424383189
2.976368,0.023144808556934852,0.3255067799705491,0.0127993934927124,0.3614509820201964
2.978669,0.02190799556995773,0.3306210360549041,0.01268936723811237,0.3652183988629741
2.980971,0.02061174875795113,0.3356979618028768,0.012573937908509664,0.3688836484693376
2.983273,0.019345464452777576,0.34100230788959884,0.012440825787989091,0.3727885981303655
2.985574,0.018169067668103143,0.3461617533285217,0.012287574933367622,0.3766183959299925
2.987876,0.017130694890315358,0.35088895276723003,0.012115167721918469,0.3801348153794639
2.990177,0.0162622733807937,0.35607639595843954,0.011926551285461271,0.38426522062469454
2.992479,0.015550049857713147,0.3613836891769811,0.011729584642181757,0.38866332367687606
2.994781,0.014968482511970138,0.3660558754883895,0.011532126810265627,0.3925564848106253
2.997082,0.014493503100370897,0.37092404606580426,0.011337616110169148,0.3967551652763443
2.999384,0.0141020257569949,0.3751674246974545,0.011138684712343205,0.4004081351667926
3.001686,0.01377194699319481,0.3806510546365382,0.010928455975875287,0.40535145760560826
3.003987,0.013498846111241164,0.3858831959936788,0.010705947523492193,0.4100879896284122
3.006289,0.01329009094068307,0.3906717940119632,0.010475088864286771,0.41443697381693306
3.0085900000000003,0.013150593367886607,0.3955640328325717,0.010239318318715279,0.4189539445191736
3.010892,0.013069547242846405,0.3997578014119246,0.0099976535095045,0.4228250021642755
3.013194,0.013031234529191036,0.4049771718645135,0.00975058562529104,0.4277589920189955
3.015495,0.01302337551100532,0.409187640857511,0.009496641100165078,0.4317076574686814
3.0177970000000003,0.01303663760419372,0.41338484775732026,0.009233855179580185,0.43565534054109417
3.020098,0.013063652979207115,0.4181262916664903,0.008960263108989931,0.4401502077546874
3.0224,0.013094597863313377,0.42273953534150577,0.008679794397487178,0.4445139276023063
3.024702,0.013116210163324095,0.4267515641253141,0.008400799251894246,0.4482685735405324
3.027003,0.01311719254059731,0.4308691984659928,0.00813113669039685,0.4521175276969869
3.029305,0.013099018561042841,0.4346248267814921,0.007868350769811957,0.4555921961123469
3.031607,0.013069547242846405,0.4385061993879628,0.007603600094680636,0.4591793467254899
3.0339080000000003,0.013037128792830326,0.4430344674288452,0.007332955155910027,0.4634045513775856
3.03621,0.013012569360999959,0.4460739427121711,0.00706722210350549,0.4661537341766766
3.038511,0.01300618390872407,0.4499690686004668,0.006822118973838458,0.4697973714830293
3.040813,0.013023866699641926,0.4536073028318168,0.006600592898728577,0.4732317624301873
3.043115,0.013062179413297296,0.4568319562311437,0.006389872973624056,0.476284008618065
3.045416,0.01311719254059731,0.4600065083895365,0.006175223539426676,0.4792989244695605
3.047718,0.013183011817902685,0.4633181021775428,0.005960574105229296,0.4824616881006748
3.05002,0.013254234170210741,0.4665177049564025,0.005761642707403349,0.4855335818340166
3.052321,0.013324965333882187,0.4698563141194222,0.005591691439137232,0.4887729708924416
3.054623,0.013400117195283102,0.4716088751748369,0.005441387716335405,0.4904503800864554
3.056924,0.01348558401805277,0.4749921825037879,0.005294031125353223,0.4937717976471938
3.059226,0.013583330556737615,0.4774618789686493,0.005142745025278182,0.496187954550665
3.061528,0.013683533038605498,0.4804885833474233,0.0050022650752085005,0.4991743814612373
3.063829,0.01377538531365106,0.4824194458779264,0.004890765254698649,0.5010855964462761
3.066131,0.013849554797778758,0.4844863676607699,0.004806771997838804,0.5031426944563875
3.068433,0.013902111981895737,0.4864182125685463,0.004728673004618248,0.5050489975550603
3.070734,0.013928636168272529,0.4879939457147824,0.004635347163662866,0.5065579290467178
3.073036,0.013928144979635923,0.4894851944155221,0.0045292504181556935,0.5079425898133137
3.075337,0.013900638415985916,0.4910216324708297,0.0044241360499217355,0.5093464069367374
3.077639,0.013848572420505544,0.4918099902325844,0.004330810208966354,0.5099893728620563
3.079941,0.013780788388653742,0.4924888129283756,0.004242396254377045,0.5105119975714064
3.082242,0.013707601281799256,0.4930045609968132,0.00414759684751184,0.5108597591261244
3.084544,0.013638343684037631,0.4945046510930119,0.004040517724731454,0.512183512501781
3.086846,0.013580383424917974,0.4944918801884602,0.00391870294285285,0.5119909665562311
3.089147,0.013540597145352785,0.4944702678884494,0.0037836260677858494,0.5117944911015879
3.0914490000000003,0.013529299806710814,0.4932698028605813,0.0036377430427134883,0.5104368457100056
3.09375,0.013556806370360823,0.4931416026264267,0.003488421697184875,0.5101868306939724
3.096052,0.013630484665851914,0.4918163756848604,0.003341065106202693,0.508787925456915
3.098354,0.01373559903408587,0.4917726598962022,0.0031951820811303307,0.5087034410114184
3.100655,0.013849554797778758,0.4903752282250545,0.003046351924238327,0.5072711349470715
3.102957,0.01394877490237343,0.4885096937832201,0.002893592258253464,0.5053520609438471
3.105259,0.01400820872740291,0.4876147480873216,0.002740341403631993,0.5043632982183566
3.10756,0.01400280565240023,0.4858562927682676,0.00258954649219356,0.5024486449128613
3.109862,0.01393207448872878,0.4835201996125634,0.0024436634671212,0.4998959375684134
3.112163,0.01382057466821893,0.482078560964121,0.002301709951141696,0.4982008455834817
3.114465,0.01369483037724747,0.4796599481174669,0.0021631947556184443,0.4955179732503328
3.116767,0.013567121331729574,0.4767864945933143,0.0020281178805514432,0.4923817338055953
3.119068,0.013444324172577756,0.4750643872333691,0.0018984440804871226,0.4904071554864339
3.12137,0.013332824352067906,0.4718205774772147,0.0017751557326986965,0.4869285575619813
3.123672,0.013239007322475916,0.4693941056123748,0.00165727045991295,0.4842903833947636
3.125973,0.013170732101987504,0.4667863851406268,0.0015423323189468472,0.4814994495615611
3.128275,0.013128489879239277,0.4637528041209402,0.0014308324984369956,0.4783121264986165
3.130576,0.013099018561042841,0.4606342474671206,0.0013286652620226821,0.4750619312901862
3.132878,0.013069056054209795,0.457603122390617,0.0012407424960699796,0.4719129209408968
3.13518,0.013035164038283895,0.4546137483482252,0.001164608257395852,0.4688135206439049
3.137481,0.013000289645084779,0.4516312509467458,0.001093877093724404,0.465725417685555
3.139783,0.012967380006432092,0.4486674187134575,0.0010216723641431346,0.4626564710840328
3.142085,0.012932996801869585,0.4446661960796546,0.0009494676345618648,0.4585486605160861
3.144386,0.012893210522304393,0.4415667957826627,0.0008811924140734535,0.4553411987190406
3.146688,0.012843600470007058,0.4385813512493637,0.0008197938344975442,0.4522447455538682
3.148989,0.012781710701794544,0.43509735024990825,0.0007633071412877071,0.4486423680929905
3.151291,0.012707050029030234,0.431824560364194,0.0007097675798975139,0.4452413779731217
3.153593,0.012620600828987355,0.4278763861031448,0.0006581927730537501,0.44115517970518586
3.155894,0.012529239742578404,0.42487031164710815,0.0006120210412126662,0.4380115724308992
3.158196,0.01243738746753284,0.4209889390406375,0.0005741995161939057,0.4340005260243643
3.160498,0.012345535192487279,0.4169661041068239,0.0005417810661778257,0.42985342036548896
3.162799,0.012247788653802431,0.4136717019210989,0.0005098538047983527,0.4264293443796997
3.165101,0.012140709531022044,0.40949561613266383,0.0004739970343260216,0.4221103226980119
3.167402,0.01202233306959969,0.4062459121128701,0.00043470194339743933,0.4187029471258673
3.1697040000000003,0.01189118570362555,0.4021597138449341,0.000392950909285821,0.4144438504578455
3.172006,0.011751196942192477,0.3979291061178357,0.0003526734410840243,0.4100329765011122
3.174307,0.01161169936939601,0.39418526632961504,0.0003207461797045514,0.4061177118787156
3.176609,0.011483990323878118,0.3895970732750665,0.00030306338878668943,0.4013841269877312
3.1789110000000003,0.0113680698056388,0.3858203238481932,0.0003001162569670457,0.39748850991079904
3.181212,0.011255096419219127,0.3815887337438215,0.000304045766059904,0.3931478759291005
3.183514,0.01113721114643338,0.3775501807736365,0.00030846646378936946,0.3889958583838592
3.1858150000000003,0.011015887553191384,0.3730705404077781,0.00030846646378936946,0.3843948944247588
3.188117,0.010897019903132422,0.368665560714684,0.000298642691057224,0.3798612233088736
3.190419,0.010785028893985964,0.3648455866877892,0.0002785039569563256,0.3759091195387315
3.19272,0.01068138809166183,0.3600417618217701,0.00025787403421882,0.3709810239476507
3.1950220000000003,0.010587571062069841,0.35536761075581524,0.0002475590728500672,0.3662027408907352
3.197323,0.010501613050663564,0.35063402586483083,0.0002514885819429254,0.3613871274974373
3.199625,0.010421549302896578,0.3459392448761385,0.00026475067513132184,0.3566255448541664
3.201927,0.01034394149831263,0.34136824342387123,0.00028194227741257656,0.35199412719959644
3.204228,0.010273701523277787,0.3368345723079861,0.000298642691057224,0.3474069165223211
3.20653,0.010219670773250991,0.3322503087625304,0.00031043121833579856,0.34278041075411714
3.208832,0.010188234700508123,0.3268295509689325,0.000314851916065264,0.33733263758550586
3.211133,0.010173990230046509,0.3225120028531545,0.00031878142515812227,0.3330047745083591
3.213435,0.010167113589134009,0.31709615694592264,0.00033056995243669685,0.3275938404874933
3.215736,0.010163675268677758,0.31216511422302223,0.000352182252447417,0.3226809717441474
3.218038,0.010167604777770615,0.30776504641629426,0.0003737945524581372,0.318306445746523
3.22034,0.01018332281414205,0.3021679519021544,0.00038460070246349733,0.3127358754187599
3.222641,0.010209847000518843,0.297610703731712,0.0003855830797367118,0.30820613381196754
3.224943,0.01023735356416885,0.2922218731994936,0.0003914773433759991,0.3028507041070385
3.227245,0.010259457052816178,0.2870663572696636,0.00041308964338671934,0.2977389039658665
3.229546,0.010277631032370648,0.282324422171857,0.0004435433388563704,0.29304559654308404
3.231848,0.010296296200561723,0.27736587288530656,0.0004671203934135197,0.2881292894792818
3.234149,0.01031889087784566,0.2721091720963355,0.0004739970343260216,0.2829020600085072
3.236451,0.0103419767437662,0.26715356994160466,0.00047055871386977063,0.2779661053992406
3.238753,0.010360150723320671,0.2621493401118497,0.0004666292047769124,0.2729761200399473
3.241054,0.0103689921187796,0.256509512186325,0.0004685939593233414,0.267347098264428
3.2433560000000003,0.01036555379832335,0.2518152223862692,0.00047940010932870147,0.2626601762939212
3.245658,0.010346397441495665,0.24673780544965984,0.0005019947866126363,0.2575861976777681
3.247959,0.01031889087784566,0.2415886749721057,0.0005285189729894291,0.25243608482294083
3.250261,0.010295805011925115,0.2369857462584589,0.0005462017639072911,0.24782775303429136
3.252562,0.010288437182376006,0.2314544710216244,0.0005471841411805057,0.2422900923451809
3.254864,0.010293840257378686,0.2262758692258739,0.0005422722548144329,0.23711198173806697
3.257166,0.010304646407384046,0.22185910100550127,0.000547675329817113,0.23271142274270246
3.259467,0.010316926123299227,0.21663432747790967,0.0005697788184644404,0.2275210324196733
3.261769,0.010326258707394769,0.21152694803446725,0.0005933558730215896,0.2224465626148836
3.264071,0.010330679405124232,0.20688374185261865,0.0006007237025706987,0.21781514496031354
3.266372,0.010330679405124232,0.2021629278661861,0.0005923734957483751,0.2130859807670587
3.2686740000000003,0.010328223461941195,0.1972864070819491,0.000585005666199266,0.2081996362100896
3.270975,0.010326749896031377,0.1923897475636112,0.0005938470616581969,0.20331034452130076
3.273277,0.010324293952848337,0.1874925968566366,0.0006120210412126662,0.1984289118506976
3.275579,0.010316926123299227,0.18343930822735335,0.0006213536253082044,0.19437758797596086
3.27788,0.010301699275564402,0.1788118200818762,0.0006115298525760589,0.18972504921001668
3.280182,0.01027713984373404,0.1741327571295553,0.0005958118162046259,0.185005708789494
3.282484,0.010243247827808137,0.1695872974863916,0.0005899175525653388,0.18042046286676508
3.284785,0.010200514416423305,0.1654922578229967,0.0006017060798439133,0.17629447831926393
3.287087,0.01015041317548936,0.16091978280481956,0.0006267567003108844,0.1716969526806198
3.289388,0.010094908859552741,0.1572560067643659,0.0006581927730537501,0.16800910839697242
3.29169,0.010031545525430402,0.15333828619878628,0.0006974878639823322,0.164067319588199
3.293992,0.009955411286756274,0.14895737474888596,0.0007475891049162746,0.1596603751405585
3.296293,0.009863067823074109,0.14545421739260286,0.0008138995708582567,0.15613118478653526
3.298595,0.009758935832113364,0.14157038884294912,0.0009047694686306028,0.1522340941436931
3.300897,0.009650383143423156,0.13804611037529196,0.0010305137596020655,0.14872700727831714
3.3031980000000005,0.009540356888823123,0.13451200813490258,0.0011999738392315755,0.14525233886295727
3.3055,0.009426401125130235,0.13106042558546324,0.0014234646688878864,0.14191029137948136
3.307801,0.00930507753188824,0.1275538299087239,0.0017103188326665355,0.1385692262732787
3.310103,0.009181297995463206,0.1248601514255696,0.002059553953294309,0.1361010033743271
3.3124050000000005,0.009070289363589962,0.12146063487161066,0.002459381503492632,0.13299030573869322
3.314706,0.008983348974910474,0.11919969357730735,0.002898012955982929,0.1310810555082008
3.317008,0.008911144245329204,0.11654973088281108,0.003363659783486628,0.12882453491162693
3.31931,0.008832062874835433,0.1146670048386954,0.00384453345872515,0.12734360117225602
3.321611,0.008732842770240763,0.11285893946734404,0.00432786307714671,0.12591964531473152
3.323913,0.008620360572457695,0.11151308260304008,0.004795965847833445,0.12492940902333124
3.326214,0.00850787837467463,0.11027234010697012,0.005230176602594277,0.12401039508423906
3.3285160000000005,0.008400799251894246,0.11016476979555312,0.005609865418691701,0.12417543446613905
3.330818,0.00829519369502368,0.10951836554977794,0.0059134199961149965,0.12372697924091662
3.3331190000000004,0.008188114572243292,0.11033030036608978,0.006118245657580232,0.1246366605959133
3.335421,0.008083982581282552,0.11104596220962658,0.006219430516721331,0.12534937530763046
3.3377230000000004,0.00799409506078342,0.11226705716023223,0.006224342403087404,0.12648549462410308
3.340024,0.007927784594841437,0.11288644603099406,0.006144769843957025,0.1269590004697925
3.3423260000000004,0.007885051183456605,0.11371557244958712,0.006026884571171278,0.127627508204215
3.344627,0.007861965317536062,0.11380791591326928,0.005925208523393572,0.12759508975419892
3.3469290000000003,0.007857053431169991,0.11309716595609855,0.005881492734735525,0.12683571212200406
3.349231,0.007872280278904815,0.11178225397590087,0.005907525732475711,0.1255620599872814
3.351532,0.007910101803923576,0.10983763816357266,0.00600871059161681,0.12375645055911305
3.3538339999999995,0.007968062063043234,0.1076194302806542,0.006188485632615072,0.12177597797631252
