Wavelength,H2O_CH3OH_CO_NH3_120K_NASA,CH3OH,HNCO_NH3,all
2.85208,0.0538156670419445,0.011619956028938474,0.00033780334833209463,0.06577342641921508
2.854382,0.05725982373387512,0.012601741930686649,0.00035217795889941767,0.07021374362346118
2.8566830000000003,0.06097182733604355,0.013860957816384158,0.0003665525694667409,0.07519933772189445
2.858985,0.06499192675803826,0.015304168717343403,0.00038092718003406413,0.08067702265541572
2.861286,0.06869290982543841,0.016746900464617073,0.00039530179060138723,0.08583511208065688
2.863588,0.07261430358820417,0.018159924683384943,0.0004096764011687104,0.09118390467275783
2.8658900000000003,0.07667129784398835,0.02012445479425244,0.00042405101173603364,0.09721980364997684
2.868191,0.08070050118600902,0.02209090151986225,0.00043842562230335684,0.10322982832817462
2.870493,0.08475701628810763,0.024036744636992232,0.0004528002328706799,0.10924656115797053
2.872795,0.08896158987904966,0.025959109223528915,0.00046717484343800314,0.11538787394601654
2.875096,0.0927536121467095,0.0279495136334176,0.0004815494540053263,0.12118467523413246
2.877398,0.09668171406107336,0.030264784242127783,0.0004959240645726494,0.1274424223677738
2.879699,0.10058969152064294,0.032202960900288534,0.0005102986751399726,0.13330295109607146
2.882001,0.10448041944753177,0.034423359079254374,0.0005241941320217184,0.13942797265880782
2.884303,0.1085311847054034,0.03635626504687377,0.0005385687425890416,0.14542601849486622
2.886604,0.11235914349948158,0.03844920834547603,0.0005524641994707872,0.1513608160444284
2.888906,0.11649040657653024,0.04041996745425603,0.0005668388100381103,0.1574772128408244
2.891208,0.1199149179673522,0.042458766386388035,0.0005807342669198563,0.16295441862066007
2.893509,0.12415015739417122,0.044476482556354634,0.0005951088774871794,0.16922174882801302
2.895811,0.12860676582372696,0.04595275506161872,0.000609004334368925,0.1751685252197146
2.898112,0.1327241334438939,0.04802317813699883,0.0006233789449362482,0.18137069052582894
2.900414,0.13681898084083868,0.04956940708035723,0.0006372744018179941,0.1870256623230139
2.902716,0.14113184316472124,0.05153729126702376,0.0006511698586997397,0.19332030429044472
2.905017,0.1458457571234321,0.053518112603200906,0.0006650653155814856,0.2000289350422145
2.907319,0.1499458752109182,0.056012586690317064,0.0006794399261488086,0.20663790182738406
2.909621,0.15452993852083755,0.05820998549237519,0.0006962103051440188,0.2134361343183568
2.911922,0.15928841377230712,0.0610408254667667,0.0007752706632642962,0.22110450990233813
2.9142240000000004,0.1640674926322565,0.06353961193705304,0.0008615183266682357,0.22846862289597775
2.916525,0.16918102076473893,0.06662440336480059,0.0009477659900721746,0.2367531901196117
2.918827,0.1743314437310108,0.06914762667305137,0.0010335344997905362,0.24451260490385274
2.921129,0.17938364019173936,0.0722587715535057,0.0011178655484521654,0.2527602772936972
2.92343,0.18460018636662093,0.07598802468835493,0.0012031549044849495,0.26179136595946084
2.925732,0.189937479270268,0.07908192003612842,0.0012927566436879304,0.27031215595008434
2.928034,0.19587898497142825,0.08281308978571994,0.0013790043070918696,0.2800710790642401
2.930335,0.20079797670756627,0.08604689800968209,0.0014595021262688796,0.28830437684351723
2.932637,0.20827469081731664,0.08979196321615536,0.0015855195455757461,0.2996521735790477
2.9349380000000003,0.21421332159636336,0.093100040261382,0.0018433042284164078,0.30915666608616177
2.93724,0.22011122431213606,0.09678569041084366,0.00208431853226186,0.3189812332552416
2.939542,0.2269017903441396,0.09999697841158364,0.0023358742171900155,0.3292346429729132
2.941843,0.2332721385938916,0.10388578972373017,0.0025869507484325943,0.33974487906605433
2.944145,0.23957492617397724,0.1071790130047039,0.0028375481259895947,0.3495914873046707
2.946447,0.24557249285635005,0.11049763143101322,0.0030780832761494684,0.35914820756351273
2.948748,0.2512753800220927,0.11388237306593225,0.003338742881103596,0.3684964959691285
2.95105,0.25803815514033274,0.11665619375174005,0.003815979951938725,0.3785103288440115
2.953351,0.2637985407483447,0.11937826583950548,0.004316216399681571,0.3874930229875317
2.955653,0.2678569724651856,0.122039006255517,0.004732600952448366,0.39462857967315096
2.957955,0.2753207494254253,0.12432361102835025,0.0050047602458563505,0.404649120699632
2.960256,0.2800988699780036,0.12658138319479112,0.0052922524572028146,0.4119725056299976
2.962558,0.2849340098191655,0.12910508565672751,0.0052395455517892965,0.4192786410276823
2.96486,0.2918889255653221,0.13132500468200778,0.005152818734699781,0.4283667489820297
2.967161,0.2969080604217457,0.13372987702992095,0.005052675614414096,0.4356906130660808
2.969463,0.30276188099844525,0.13534606241137365,0.00495444910887072,0.4430623925186896
2.971764,0.3076521235134486,0.1377341643802916,0.0048672431380956255,0.4502535310318359
2.974066,0.3125375744915962,0.14012945365449322,0.004768537478866674,0.4574355656249561
2.976368,0.3175313142026843,0.14209350461167514,0.004670310973323299,0.4642951297876828
2.978669,0.32252026237691656,0.14423580073989184,0.004581188387805895,0.4713372515046143
2.980971,0.32747279487104497,0.1465865287213348,0.00448487849700483,0.4785442020893846
2.983273,0.3326471755215958,0.14928033074165115,0.004386651991461455,0.4863141582547084
2.985574,0.3376802058349012,0.15214614893508982,0.004301841789114248,0.4941281965591052
2.987876,0.3422915809048984,0.15497794721685246,0.004202656976199718,0.5014721850979506
2.990177,0.34735192297828177,0.15783034910709498,0.004078077017949585,0.5092603491033263
2.992479,0.35252917855094595,0.16150785364390186,0.003930497682791733,0.5179675298776395
2.994781,0.3570868884081585,0.16437510929839722,0.003784834962376191,0.5252468326689319
2.997082,0.36183578058591664,0.16799176131713572,0.0036396513956462274,0.5334671932986986
2.999384,0.3659751892756201,0.17167357823711274,0.003494467828916264,0.5411432353416491
3.001686,0.37132446102140665,0.17524327319466468,0.0033497634158718764,0.5499174976319432
3.003987,0.3764284060801775,0.1783247105466132,0.0032045798491419125,0.5579576964759326
3.006289,0.381099675360872,0.1819787365528268,0.0030459799792157804,0.5661243918929144
3.0085900000000003,0.3858720460692233,0.1857008023823923,0.0030646669729533,0.5746375154245689
3.010892,0.3899630602366834,0.1894511382794069,0.0031767889353784213,0.5825909874514688
3.013194,0.3950545472996293,0.1932019533301071,0.0032831610535766125,0.5915396616833131
3.015495,0.3991618526923991,0.1970040378251641,0.003390012325460381,0.5995559028430236
3.0177970000000003,0.4032562209356583,0.1999776655978577,0.003497342751029728,0.6067312292845458
3.020098,0.4078814914625374,0.20391535058593305,0.0036147354039962,0.6154115774524666
3.0224,0.4123817028774806,0.20704039092326912,0.0037211075221943923,0.6231432013229441
3.024702,0.4162954301812772,0.20996849909583284,0.0038270004867070064,0.6300909297638171
3.027003,0.4203121755274728,0.21260288605913766,0.003932414297534042,0.6368474758841444
3.029305,0.42397578460739793,0.2161433526418693,0.004038307262046657,0.644157444511314
3.031607,0.4277620570308309,0.21876144837986444,0.004155699915013129,0.6506792053257084
3.0339080000000003,0.4321793748581693,0.22068956281062804,0.004261592879525743,0.657130530548323
3.03621,0.4351443778645225,0.22349500763968394,0.004371798227208555,0.6630111837314151
3.038511,0.4389440665911515,0.2255050573506813,0.004529439789763531,0.6689785637315964
3.040813,0.4424931579402236,0.2275007324511113,0.004705768346056029,0.6746996587373909
3.043115,0.4456388018860396,0.2294810746336029,0.004882576056034105,0.6800024525756766
3.045416,0.4487355721559265,0.2311293633119893,0.0050550713828419825,0.6849200068507578
3.047718,0.4519660263040897,0.2327139245501939,0.005230920785448902,0.6899108716397325
3.05002,0.4550872334119411,0.2342256544281907,0.00539574965328754,0.6947086374934194
3.052321,0.458344041012811,0.2358054241295395,0.005568724133780997,0.6997181892761314
3.054623,0.4600536613629512,0.23654140419058645,0.00574409438270234,0.7023391599362399
3.056924,0.4633540719492086,0.23729032140114398,0.005919464631623682,0.7065638579819763
3.059226,0.46576325668029206,0.23811781981613625,0.006086210114204631,0.7099672866106329
3.061528,0.4687158016908202,0.23892902700581886,0.006246247445187496,0.7138910761418266
3.063829,0.470599354828825,0.2396755484479485,0.006397660009829967,0.7166725632866036
3.066131,0.472615633537735,0.2396290705404475,0.006545239344987818,0.7187899434231703
3.068433,0.47450014498311105,0.23972490127756296,0.006685152221176429,0.7209101984818503
3.070734,0.4760372700064434,0.2404920263281725,0.0068351273247621675,0.7233644236593781
3.073036,0.4774919805958565,0.2405174214735081,0.006972644432522893,0.7249820465018875
3.075337,0.4789907733243428,0.24049777617239934,0.007123098689794209,0.7266116481865363
3.077639,0.4797598149896946,0.23970238105434086,0.007262532412297244,0.7267247284563327
3.079941,0.4804220053831625,0.2397277761996764,0.007408195132712786,0.7275579767155517
3.082242,0.4809251167530188,0.2396616529910668,0.007550503777329286,0.7281372735214148
3.084544,0.4823884521087724,0.2389261520837054,0.0076932915756313626,0.7290078957681091
3.086846,0.4823759941129474,0.2381130282792805,0.007825537992850734,0.7283145603850786
3.089147,0.482354911350782,0.2373827980624605,0.007945805567930673,0.7276835149811731
3.0914490000000003,0.4811838597432308,0.23648294744094606,0.008061760759840412,0.7257285679440172
3.09375,0.481058800631295,0.2352692511553784,0.008188257332832856,0.7245163091195063
3.096052,0.4797660439876072,0.23420792574182436,0.008310920676340679,0.7222848904057722
3.098354,0.4797233993095906,0.23345565445546776,0.008425438407193689,0.7216044921722521
3.100655,0.4783602070741229,0.2318265319245045,0.008549060058072669,0.7187357990567
3.102957,0.4765403813762997,0.23075897751303795,0.00866261948155452,0.7159619783708923
3.105259,0.4756673633611776,0.22875515679995306,0.008739284071246911,0.7131618042323776
3.10756,0.4739519931668104,0.2272467809977553,0.008773783136608487,0.7099725573011743
3.109862,0.4716731382382041,0.22569815628596904,0.008807803048284484,0.7061790975724576
3.112163,0.4702668221710343,0.22351369463342147,0.008831281578877779,0.7026117983833335
3.114465,0.4679074694232511,0.2212472977006402,0.008864343183182622,0.6980191103070739
3.116767,0.4651044203626231,0.21905469043543785,0.008895488172745157,0.693054598970806
3.119068,0.4634245075409885,0.21673941982672765,0.008929987238106733,0.6890939146058229
3.12137,0.4602601766014351,0.2141251573182171,0.008964486303468308,0.6833498202231205
3.123672,0.4578931573946826,0.21157701801831635,0.008965923764525041,0.6784360991775239
3.125973,0.455349330477952,0.20887554953903076,0.008906987861199015,0.6731318678781817
3.128275,0.4523900773158257,0.2060873542426556,0.008859551646326848,0.6673369832048082
3.130576,0.4493479305660945,0.2031290593879005,0.008804448972485442,0.6612814389264805
3.132878,0.4463910731723961,0.1995454689734668,0.008749346298644036,0.6546858884445069
3.13518,0.44347494384197184,0.19688568686482644,0.008699035161658408,0.6490596658684566
3.137481,0.4405655226631456,0.19336390727583228,0.008642015873074692,0.6425714458120526
3.139783,0.43767430932437135,0.18985698145109103,0.008585954891862129,0.6361172456673244
3.142085,0.4337711234016575,0.18640228337807765,0.008538997830675542,0.6287124046104108
3.144386,0.4307476636456639,0.18304724927166444,0.008484374310519712,0.6222792872278481
3.146688,0.4278353675447242,0.17960596750184726,0.008434542327219659,0.6158758773737911
3.148989,0.4244367304529234,0.17557293093034196,0.008378002192321522,0.6083876635755869
3.151291,0.4212441294459209,0.17244022413403667,0.008321941211108963,0.6020062947910666
3.153593,0.4173926921212496,0.16839425041302078,0.008275942457293527,0.5940628849915639
3.155894,0.4144602715655156,0.16462953990543885,0.008221798090823278,0.5873116095617776
3.158196,0.4106739991420825,0.16049444359890552,0.008167653724353028,0.5793360964653412
3.160498,0.4067497304572034,0.15697745554676712,0.008116863433681818,0.5718440494376523
3.162799,0.4035360466880356,0.15292477367415316,0.008060802452469257,0.5645216228146579
3.165101,0.3994622820532561,0.1496746742248814,0.008005699778627853,0.5571426560567654
3.167402,0.39629220126947584,0.14568715725350595,0.007963534254297038,0.5499428927772788
3.1697040000000003,0.3923061217591571,0.14225641686477145,0.007921847883651802,0.5424843865075804
3.172006,0.38817917106527866,0.13850416435301455,0.007888786279346957,0.5345721216976401
3.174307,0.3845270616738074,0.13487697095319334,0.007856682982413267,0.527260715609414
3.176609,0.3800512870968285,0.13182188705395154,0.007824100531794003,0.5196972746825741
3.1789110000000003,0.3763670744084236,0.1284064795831556,0.007791518081174738,0.5125650720727539
3.181212,0.3722391654071739,0.12532839630700612,0.007759414784241048,0.5053269764984211
3.183514,0.3682995638043563,0.12187130246556488,0.0077277906409929376,0.4978986569109141
3.1858150000000003,0.3639296821918901,0.11891875745503673,0.007706228725141953,0.4905546683720687
3.188117,0.3596326319396315,0.1160524601079125,0.007673646274522688,0.4833587383220666
3.190419,0.35590625372689577,0.1131507053880555,0.00764106382390342,0.4766980229388546
3.19272,0.3512201306819485,0.11036969739696403,0.0076084813732841565,0.4691983094521967
3.1950220000000003,0.3466605042099936,0.1076140845512082,0.007575898922664891,0.4618504876838666
3.197323,0.3420429001420837,0.10476312012202244,0.007543316472045622,0.4543493367361518
3.199625,0.3374631492153345,0.10226050042225147,0.00751073402142636,0.4472343836590124
3.201927,0.3330041450173509,0.09984412838588448,0.007499234332972498,0.4403475077362079
3.204228,0.32858155649947113,0.09722459518683256,0.007546670547844666,0.4333528222341484
3.20653,0.3241096151519769,0.09490117896546757,0.007597460838515873,0.4266082549559604
3.208832,0.3188216750779443,0.0929342530861722,0.007639626362846688,0.4193955545269632
3.211133,0.3146099141817186,0.09079962341692473,0.0076932915756313626,0.41310282917427465
3.213435,0.30932676564454176,0.08799705350998227,0.0077349779462766,0.4050587971008006
3.215736,0.3045165417950299,0.08596879595893296,0.00777762262429299,0.3982629603782559
3.218038,0.3002242830796272,0.08400378669437987,0.007827933761278622,0.3920560035352856
3.22034,0.2947643268324723,0.08203063181717199,0.007872015900351746,0.384666974549996
3.222641,0.29031873893768473,0.08040294674726542,0.007912743963625828,0.378634429648576
3.224943,0.2850619438532147,0.07837277258147382,0.007968325791152812,0.37140304222584136
3.227245,0.2800327467693939,0.07642501284960154,0.008009053854426894,0.3644668134734223
3.229546,0.2754069970888293,0.07527743977264356,0.008052656839814442,0.3587370937012873
3.231848,0.27056994063292505,0.0733843035609271,0.008102967976800074,0.3520572121706522
3.234149,0.2654420378898753,0.07155106155990781,0.00814465434744531,0.34513775379722844
3.236451,0.2606078563560845,0.07034694834805172,0.008196402945487673,0.3391512076496239
3.238753,0.25572623860742155,0.06842650037625735,0.008238568469818488,0.3323913074534974
3.241054,0.25022459598962143,0.06721088747594739,0.00827929653309257,0.3257147799986614
3.2433560000000003,0.24564532421655774,0.06541166538660409,0.008344940588016679,0.3194019301911785
3.245658,0.24069231256874385,0.06426936300018747,0.008411542950311943,0.3133732185192432
3.247959,0.2356693444828355,0.062370956097929676,0.008476228697864898,0.3065165292786301
3.250261,0.2311791952952893,0.06116923865450145,0.008545705982273626,0.3008941399320644
3.252562,0.2257834456420018,0.059959854752104004,0.008607516807713114,0.2943508172018189
3.254864,0.22073172833495885,0.05814002905428089,0.008679389860549731,0.2875511472497895
3.257166,0.21642317839424646,0.0569929351310085,0.008741679839674799,0.2821577933649298
3.259467,0.2113264206407593,0.05576773915698698,0.008802053204057554,0.27589621300180384
3.261769,0.20634418061812512,0.05458566701466745,0.008876801179007637,0.2698066488118002
3.264071,0.20181474082836154,0.053047104530278284,0.008937174543390394,0.2637990199020302
3.266372,0.1972095947562768,0.052177440590955235,0.008999464522515462,0.2583864998697475
3.2686740000000003,0.19245255696586397,0.050447695786020666,0.009069900114295345,0.25197015286617996
3.270975,0.1876758738743425,0.04925891549210305,0.009130273478678105,0.24606506284512364
3.273277,0.18289871162913546,0.04805480228024694,0.009203583992571452,0.24015709790195386
3.275579,0.1789447354157504,0.046891896285350496,0.009262040742211895,0.2350986724433128
3.27788,0.17443062854392535,0.045750552206305035,0.00925629089798497,0.22943747164821535
3.280182,0.16986621053511464,0.04455841783658837,0.009243353748474377,0.2236679821201774
3.282484,0.16543212232878107,0.043978162723354086,0.009235208135819559,0.21864549318795476
3.284785,0.16143741805212194,0.04274242536824988,0.00922418760105128,0.2134040310214231
3.287087,0.15697697639308156,0.041591019061807295,0.009204063146257027,0.20777205860114584
3.289388,0.15340296905235942,0.040477465896525316,0.00919639668728779,0.20307683163617246
3.29169,0.1495812392561938,0.03987133648426986,0.009188730228318549,0.19864130596878216
3.293992,0.1453076675345286,0.0386854311124657,0.009168605773524295,0.19316170442051855
3.296293,0.1418903434489903,0.037834454166880166,0.009158543546127171,0.1888833411619976
3.298595,0.1381016752571295,0.036911125014772436,0.00914752301135889,0.1841603232832608
3.300897,0.13466374756311136,0.03629301676037755,0.00913602332290503,0.18009278764639394
3.3031980000000005,0.1312162367953817,0.03524127442053507,0.00911925294390982,0.1755767641598266
3.3055,0.127849223846829,0.034704143139002754,0.00911206563862616,0.1716654326244579
3.307801,0.1244285456854917,0.034157907937444484,0.009102961718600186,0.16768941534153636
3.310103,0.121800866873785,0.03386897826504128,0.00908187895643478,0.16475172409526107
3.3124050000000005,0.11848464421590355,0.03371037839511515,0.009075170804836698,0.16127019341585538
3.314706,0.11627909980119062,0.03370031616771803,0.009058879579527062,0.1590382955484357
3.317008,0.11369406566750033,0.034247509676647456,0.009047379891073204,0.15698895523522094
3.31931,0.111857469590682,0.034754933429673965,0.0090368385099905,0.15564924153034645
3.321611,0.11009370487407144,0.035472226496983394,0.009026297128907798,0.15459222849996265
3.323913,0.10878082377558927,0.03753785803550773,0.0090071309814847,0.1553258127925817
3.326214,0.10757048156582066,0.03977742236189668,0.009000422829886615,0.15634832675760396
3.3285160000000005,0.1074655469086792,0.04244630839056302,0.008992277217231798,0.15890413251647406
3.330818,0.10683498065845927,0.04644101266722213,0.008971194455066394,0.1622471877807478
3.3331190000000004,0.1076270217007188,0.05054113075470827,0.008962569688725998,0.16713072214415306
3.335421,0.10832514862060512,0.055164963820530565,0.008955861537127914,0.1724459739782636
3.3377230000000004,0.10951632468295062,0.0603144284794313,0.008937174543390394,0.17876792770577232
3.340024,0.11012053748046377,0.06541118623291851,0.008926633162307691,0.18445835687569
3.3423260000000004,0.11092934890171853,0.07085580956213497,0.008916091781224987,0.19070125024507847
3.344627,0.11101942979460704,0.07504265446671063,0.008904112939085551,0.19496619720040326
3.3469290000000003,0.1103260944115765,0.07870195116346552,0.008889259174832652,0.19791730474987468
3.349231,0.1090433999952857,0.08145804316290695,0.008882071869548987,0.19938351502774165
3.351532,0.1071464305540846,0.08369521172086801,0.008871530488466286,0.1997131727634189
3.3538339999999995,0.1049825725100169,0.08458404180761417,0.008852843494728764,0.1984194578123598
3.356135,0.10249193165238538,0.08520167090832349,0.008847093650501835,0.19654069621121076
3.3584370000000003,0.10067833495247476,0.08515902623030709,0.00882744834939316,0.19466480953217505
3.360739,0.09916277184499334,0.08511733985966187,0.008817865275681609,0.1930979769803368
