Wavelength,H2O_NH3_CO2_CH4_10_1_1_1_72K_b,H2O_CH3OH_CO_NH3_120K_NASA,H2O_CH3OH_CO_NH3_100K_NASA,all
2.85208,0.06966767728792392,0.054964618096348984,0.07201816482074194,0.19665046020501484
2.854382,0.07363633938709628,0.05848230667369957,0.07700106758849153,0.2091197136492874
2.8566830000000003,0.07725102061986097,0.06227356062594432,0.0821082737645114,0.2216328550103167
2.858985,0.08156222472078037,0.06637948816684187,0.08713864673148232,0.23508035961910456
2.861286,0.08536616716883941,0.07015948629865269,0.09297062986674766,0.2484962833342397
2.863588,0.08956173474700753,0.07416460083914203,0.09784391073114072,0.26157024631729026
2.8658900000000003,0.09385630049932964,0.07830821090931839,0.10268684981871187,0.2748513612273599
2.868191,0.09839773774896424,0.08242343673666135,0.10753027828978022,0.2883514527754058
2.870493,0.10294728619354004,0.08656655742334059,0.1126213348103949,0.3021351784272755
2.872795,0.10755985238342816,0.09086089761063212,0.11688141815288755,0.31530216814694784
2.875096,0.11233859407993184,0.0947338786068971,0.12177867880863982,0.32885115149546873
2.877398,0.11705868559763005,0.09874584451634624,0.1260695933114515,0.3418741234254278
2.879699,0.12223300403203467,0.102737256318916,0.1304857899895277,0.3554560503404784
2.882001,0.12728669443910884,0.1067110503155892,0.13470133943378176,0.3686990841884797
2.884303,0.13249408159135062,0.11084829840030287,0.13864479165363308,0.3819871716452866
2.886604,0.1375390368654112,0.11475798315885245,0.14274044214109094,0.39503746216535457
2.888906,0.14293194160451295,0.11897744767108352,0.1469843758281784,0.4088937651037749
2.891208,0.14852637834099955,0.1224750715250519,0.1508798684653112,0.42188131833136266
2.893509,0.15345819284459847,0.1268007322561596,0.1547146775488003,0.4349736026495584
2.895811,0.15909318555579102,0.13135248816294004,0.1585666150546888,0.4490122887734199
2.898112,0.16468803825099254,0.13555776055375446,0.16314137198583428,0.4633871707905813
2.900414,0.17015851929042924,0.13974003192020384,0.16702365126854465,0.4769222024791777
2.902716,0.17554539262816446,0.14414497277784616,0.17159008868023895,0.4912804540862496
2.905017,0.1812500584241082,0.14895952762258394,0.17562211931307029,0.5058317053597624
2.907319,0.18651463989965325,0.15314718220750173,0.1799551207966349,0.5196169429037899
2.909621,0.19220765885157887,0.15782911412451806,0.1843302092609524,0.5343669822370494
2.911922,0.19788986287691626,0.16268918163448867,0.18902290761490556,0.5496019521263105
2.9142240000000004,0.20358766535406364,0.1675702926348358,0.1938139720517812,0.5649719300406807
2.916525,0.20953774679181766,0.1727929933161777,0.1990195443107237,0.5813502844187189
2.918827,0.21546911008739972,0.17805337652679842,0.20403132070480376,0.5975538073190021
2.921129,0.2215294205846109,0.18321343612050808,0.20888502622931174,0.6136278829344308
2.92343,0.22855496327982325,0.18854135425373236,0.21395650741004132,0.6310528249435969
2.925732,0.2348665128408537,0.19399259702823266,0.2193862173106681,0.6482453271797545
2.928034,0.2419694238570436,0.20006095239261049,0.2252035189410196,0.6672338951906736
2.930335,0.24811334205595625,0.20508496337411874,0.22972493307097824,0.6829232385010532
2.932637,0.2537196336158184,0.21272130346329216,0.23677792803157602,0.7032188651106865
2.9349380000000003,0.2590740621737889,0.2187867225266872,0.24238185845718,0.7202426431576561
2.93724,0.26423964547518,0.22481054399282646,0.24809492140264344,0.7371451108706498
2.939542,0.26868374838552034,0.2317460869141137,0.2541427226601419,0.754572557959776
2.941843,0.27256734692748896,0.2382524405084204,0.26020471603905704,0.7710245034749663
2.944145,0.27727246393144955,0.2446897910296321,0.2659667173342332,0.7879289722953148
2.946447,0.2812708670787396,0.2508154042631738,0.271581414196774,0.8036676855386875
2.948748,0.2855119821361929,0.25664004664598217,0.27778924385783305,0.8199412726400082
2.95105,0.2898265139068317,0.2635472053244361,0.28356886295890577,0.8369425821901735
2.953351,0.29311570744516163,0.26943057372689977,0.2892706700839353,0.8518169512559968
2.955653,0.29710183981036115,0.2735756519475675,0.2931847592939589,0.8638622510518876
2.957955,0.29959447240959497,0.2811987786823185,0.2997297741845387,0.8805230252764522
2.960256,0.30189659591738977,0.2860789109156714,0.3048775991908201,0.8928531060238813
2.962558,0.3050279331234027,0.2910172797851824,0.30846624837525416,0.9045114612838392
2.96486,0.3068496243154502,0.29812068124598434,0.31489723691100324,0.9198675424724378
2.967161,0.30914051693794176,0.3032469733783922,0.3202863279813684,0.9326738182977024
2.969463,0.3107128408803872,0.3092257715627956,0.3251185006320028,0.9450571130751856
2.971764,0.3137123191737665,0.3142204195344763,0.330292262963632,0.9582250016718749
2.974066,0.31598698940637565,0.31921017367118565,0.3355325814508705,0.9707297445284316
2.976368,0.31844925701941945,0.32431052847824576,0.3396874473414808,0.9824472328391459
2.978669,0.3206095386054222,0.3294059894503346,0.3440889625146432,0.9941044905704001
2.980971,0.323562429522729,0.3344642572766417,0.3494961607744021,1.0075228475737728
2.983273,0.3268842758201811,0.33974910966211885,0.3538815262921593,1.0205149117744592
2.985574,0.3283353477972236,0.34488959391594337,0.3588154907101961,1.0320404324233632
2.987876,0.33193567845432315,0.34959942069229594,0.3634910606417498,1.045026159788369
2.990177,0.3355343452765629,0.35476779980545675,0.3681304161945161,1.0584325612765355
2.992479,0.33763327295211304,0.3600555884919165,0.372637638203058,1.0703264996470874
2.994781,0.3408407306029587,0.3647106043165909,0.37723050232359706,1.0827818372431466
2.997082,0.3443042108428453,0.3695608841566189,0.3818218982936449,1.0956869932931093
2.999384,0.3466699760340247,0.3737886681883012,0.3854325697354497,1.1058912139577757
3.001686,0.3498884565908161,0.37925214555022974,0.3904007909982854,1.1195413931393312
3.003987,0.3531876331383044,0.3844650585616291,0.3954654208100553,1.1331181125099887
3.006289,0.35601012099847984,0.3892360582751226,0.3992948466750759,1.1445410259486783
3.0085900000000003,0.35919012537414,0.3941103179065099,0.4035705902894766,1.1568710335701264
3.010892,0.3626032746095197,0.3982886742049823,0.4074602103246439,1.1683521591391461
3.013194,0.3656559956184105,0.4034888632454564,0.4115690741665243,1.1807139330303908
3.015495,0.3695133887613383,0.407683858582831,0.4155976791148757,1.192794926459045
3.0177970000000003,0.3726532531210073,0.41186564056578334,0.4189460410022203,1.203464934689011
3.020098,0.37587880497595255,0.41658965946355264,0.4228537682267813,1.2153222326662867
3.0224,0.3791813091931603,0.4211859492685716,0.4258639661176109,1.2262312245793427
3.024702,0.3813952494533893,0.42518323367310695,0.4289186979066792,1.2354971810331754
3.027003,0.3829852516412194,0.4292857355295245,0.43251419846007305,1.2447851856308172
3.029305,0.3864067200508978,0.4330275617485595,0.4349107094455051,1.2543449912449625
3.031607,0.3893720897296526,0.43689467014285904,0.4381235121041455,1.2643902719766569
3.0339080000000003,0.390956476474831,0.441406296602875,0.441171392524254,1.27353416560196
3.03621,0.39305353233616397,0.4444346016830984,0.44318961006640667,1.280677744085669
3.038511,0.395183656915334,0.4483154128153174,0.4455347357846404,1.289033805515292
3.040813,0.39745250372593416,0.4519402763785388,0.4483012206939008,1.2976940007983735
3.043115,0.398778372129782,0.4551530790371792,0.4502298810560792,1.3041613322230403
3.045416,0.4011755422039388,0.4583159645791126,0.4521839893601083,1.3116754961431596
3.047718,0.4022410204522388,0.4616153881167445,0.453075156708377,1.3169315652773603
3.05002,0.40363968163119984,0.4648032322170312,0.4552974471688318,1.3237403610170628
3.052321,0.4047908473747759,0.4681295718470052,0.456233148415339,1.3291535676371202
3.054623,0.4063906245924069,0.4698756921647551,0.4579132019609769,1.3341795187181393
3.056924,0.4062198735399271,0.4732465656929676,0.4580115680438994,1.337478007276794
3.059226,0.40746962149894217,0.4757071859165234,0.4590338901693983,1.3422106975848638
3.061528,0.4082528717591603,0.4787227670258214,0.4603459273251964,1.3473215661101778
3.063829,0.4078903637390965,0.4806465335530285,0.4609977861433698,1.3495346834354949
3.066131,0.4088630831939666,0.48270585930894,0.4613452484263302,1.3529141909292366
3.068433,0.4082532877178752,0.4846306046031415,0.4615302353882443,1.3544141277092612
3.070734,0.4077761830718475,0.4862005468619256,0.4615439381261638,1.355520668059937
3.073036,0.40732840351522254,0.4876863151592039,0.4615449168931581,1.3565596355675844
3.075337,0.4066435274910859,0.4892171067382179,0.4615449168931581,1.357405551122462
3.077639,0.4057463045429762,0.4900025672511072,0.4612889693241605,1.3570378411182442
3.079941,0.4036211714683853,0.490678895244137,0.4602353266548456,1.3545353933673678
3.082242,0.4029589651942125,0.4911927479161206,0.460271541033633,1.3544232541439658
3.084544,0.40092451111947697,0.4926873251163472,0.459690642822543,1.3533024790583672
3.086846,0.3991901712575653,0.4926746011454219,0.4588435199890157,1.3507082923920029
3.089147,0.3979308562481067,0.4926530682715483,0.4577727488973013,1.3483566734169563
3.0914490000000003,0.3954850190043028,0.4914570150045693,0.4561846994491234,1.3431267334579955
3.09375,0.3916465519829043,0.4913292859118191,0.4552685735425012,1.3382444114372247
3.096052,0.39098892125459583,0.4900089292365699,0.4534578546031304,1.3344557050942958
3.098354,0.3879493029452255,0.4899653741053254,0.4523777852249706,1.3302924622755214
3.100655,0.38565799436401904,0.4885730780559985,0.4504378690423583,1.3246689414623758
3.102957,0.3825790679560876,0.4867143995339092,0.4491698764013016,1.3184633438912985
3.105259,0.37984101971504347,0.4858227428021434,0.4469045201930996,1.3125682827102865
3.10756,0.3764944238740529,0.4840707498824279,0.4448109375923892,1.30537611134887
3.109862,0.373582088931452,0.4817432419700907,0.44307215802709615,1.2983974889286392
3.112163,0.3704900598240001,0.4803069014060223,0.4413935726319497,1.292190533861972
3.114465,0.36693652452233055,0.4778971770661678,0.4394213571385269,1.2842550587270254
3.116767,0.3638779800914308,0.4750342836079734,0.4365550379958527,1.2754673016952571
3.119068,0.36030739048244903,0.4733185050670453,0.4338497260237332,1.2674756215732277
3.12137,0.35729023394368503,0.47008661645201705,0.4319934944191296,1.2593703448148317
3.123672,0.3537618641442689,0.4676690619762085,0.4298069289539652,1.2512378550744423
3.125973,0.3501858670719929,0.4650709249899599,0.4264135437848849,1.2416703358468375
3.128275,0.3465988470937713,0.4620484925117021,0.4245597590977668,1.2332070987032402
3.130576,0.3428236057970426,0.4589413966884412,0.4216650557122592,1.2234300581977429
3.132878,0.3392765178554545,0.455921411127669,0.41887899546311386,1.2140769244462373
3.13518,0.335466128047314,0.4529430231641526,0.4161002759664254,1.204509427177892
3.137481,0.33202448563996123,0.449971486569596,0.4133303653726852,1.1953263375822425
3.139783,0.32797824724045394,0.4470185465479302,0.4106509907259136,1.1856477845142976
3.142085,0.3248674999908302,0.4430320285803317,0.4074660829266095,1.1753656114977713
3.144386,0.3201696622643808,0.4399440187134588,0.4039224570239111,1.1640361380017508
3.146688,0.31699423343458505,0.4369695458179194,0.4012641258675159,1.1552279051200205
3.148989,0.3127142262372856,0.4334983486727959,0.3987315662698824,1.1449441411799641
3.151291,0.3086725633836426,0.4302375864314371,0.3947934972684995,1.133703647083579
3.153593,0.30442146531703096,0.4263039218815284,0.3922697465738144,1.1229951337723736
3.155894,0.30078744200402185,0.4233088948791096,0.38856462411706394,1.1126609610001954
3.158196,0.2966099686299533,0.4194417864848102,0.38579226660583815,1.1018440217206016
3.160498,0.29226881550155875,0.41543373564333796,0.3823034516548181,1.090006002799715
3.162799,0.288456969837916,0.4121514405281057,0.3791503537828272,1.079758764148849
3.165101,0.2843271237367073,0.40799070203552973,0.3761039415132102,1.0684217672854472
3.167402,0.2798620149112627,0.40475294081853597,0.3719441817876286,1.0565591375174272
3.1697040000000003,0.2759522109702533,0.4006817595059344,0.3688684065081839,1.0455023769843717
3.172006,0.27174146089899026,0.3964666994451776,0.3654270617563852,1.033635222100553
3.174307,0.2672451551699258,0.39273661843007374,0.3614733324830942,1.021455106083094
3.176609,0.26287426099341354,0.38816528718340815,0.3583858119997184,1.00942536017654
3.1789110000000003,0.2589035191006665,0.3844024174739968,0.35489210321372705,0.9981980397883904
3.181212,0.2550072338178924,0.3801863786462457,0.35138811737429604,0.986581729838434
3.183514,0.2505223669534887,0.3761626675328655,0.3474617935768441,0.9741468280631982
3.1858150000000003,0.24633345471475945,0.37169949003906505,0.34361230298844125,0.9616452477422656
3.188117,0.2424658705833157,0.3673106988368279,0.3403089643828324,0.950085533802976
3.190419,0.23808644925314734,0.36350476337966936,0.3356666725290833,0.9372578851619001
3.19272,0.23374758389768496,0.35871859277776497,0.3318993983681979,0.924365575043648
3.1950220000000003,0.2296738922229921,0.3540616194191021,0.3284976936796664,0.9122332053217608
3.197323,0.2255261598970412,0.34934543065728685,0.3249995804422009,0.8998711709965289
3.199625,0.22141586385543427,0.34466790319174473,0.320542275550366,0.8866260425975451
3.201927,0.2171986664240897,0.3401137003674786,0.31620095454735025,0.8735133213389186
3.204228,0.21312705454297146,0.33559669068899417,0.31188654963667645,0.860610294868642
3.20653,0.2090288213040976,0.3310292745103057,0.3080160155578971,0.8480741113723003
3.208832,0.20467518941425505,0.3256284382360094,0.30393259965786745,0.8342362273081319
3.211133,0.2006707548655985,0.3213267572962609,0.2994850824359751,0.8214825945978346
3.213435,0.19670063691092388,0.315930814856936,0.2949700302914791,0.8076014820593389
3.215736,0.19243643614479186,0.31101789392927565,0.2908929763769121,0.7943473064509796
3.218038,0.18854035884137524,0.3066339965620098,0.2858797318323406,0.7810540872357257
3.22034,0.18462951500357846,0.3010574716122449,0.2816969710823941,0.7673839576982174
3.222641,0.1804220926020348,0.2965169715258983,0.27713493812217393,0.7540740022501071
3.224943,0.1765245594431159,0.2911479451789153,0.2719323021642143,0.7396048067862455
3.227245,0.1726103879355997,0.2860113759930678,0.2673296503737325,0.7259514143024001
3.229546,0.16881518062055426,0.28128686771180145,0.2622855746688421,0.7123876230011978
3.231848,0.16479306782651304,0.276346541308302,0.2577900978642312,0.6989297069990462
3.234149,0.16121603085744976,0.27110915912204625,0.252939328640706,0.6852645186202021
3.236451,0.15731558598752635,0.2661717690195295,0.24798040566431565,0.6714677606713715
3.238753,0.15360169860125025,0.26118592995079715,0.24284873031343945,0.6576363588654869
3.241054,0.15002403769411454,0.2555668286367822,0.2376730104478217,0.6432638767787184
3.2433560000000003,0.14641018837877973,0.2508897905547371,0.23314963878387465,0.6304496177173915
3.245658,0.14301409345071212,0.24583103334493284,0.2278853405052769,0.6167304673009218
3.247959,0.13925715433744051,0.24070082614454796,0.2225823809304061,0.6025403614123945
3.250261,0.1359513224505133,0.2361148133929685,0.21733716860819632,0.5894033044516782
3.252562,0.13273180199693466,0.2306038658318187,0.21240173603966808,0.5757374038684214
3.254864,0.1297115257678087,0.2254442956216062,0.2079914119635574,0.5631472333529723
3.257166,0.12624658967241975,0.22104375921543806,0.20294733625866693,0.5502376851465247
3.259467,0.12344178005762893,0.2158381869564956,0.1979277297286328,0.5372076967427573
3.261769,0.12025865599160684,0.21074957735336655,0.1929673386017511,0.5239755719467245
3.264071,0.11746133363368486,0.2061234351550227,0.1881434854705679,0.5117282542592755
3.266372,0.11475177856461358,0.2014199703641328,0.18314736934839587,0.4993191182771423
3.2686740000000003,0.11205761396799484,0.1965613710046536,0.17859854974259814,0.4872175347152466
3.270975,0.10934889081635346,0.19168270692179207,0.1739156390585876,0.4749472367967332
3.273277,0.1068431555175992,0.1868035534554335,0.16914512872859128,0.462791837701624
3.275579,0.10455455066803976,0.1827651608371395,0.16448130400096864,0.4518010155061479
3.27788,0.10225201120153013,0.17815467891070375,0.16018304874570008,0.440589738857934
3.280182,0.09996652604233272,0.17349281171706968,0.15566750721770706,0.4291268449771094
3.282484,0.09788569257088216,0.1689640568346542,0.15124250163668249,0.4180922510422189
3.284785,0.09575577597106956,0.16488406661910435,0.14701324945450892,0.4076530920446828
3.287087,0.09377685238477748,0.16032839564434687,0.14304581744329836,0.3971510654724227
3.289388,0.0919179328877435,0.15667808413927478,0.13874120020256714,0.3873372172295854
3.29169,0.09021312609459206,0.15277476136618792,0.135083058561541,0.37807094602232105
3.293992,0.08841472859058076,0.14840994995531004,0.13117533133698,0.3680000098828708
3.296293,0.08685384351279601,0.14491966685379853,0.12745601675881296,0.3592295271254075
3.298595,0.08542377745085758,0.14105011154201344,0.12384681346749955,0.35032070246037056
3.300897,0.08418650825329042,0.1375387849501255,0.12032080537069778,0.3420460985741137
3.3031980000000005,0.08289391654663722,0.13401767068829498,0.1169200794491606,0.3338316666840928
3.3055,0.08203683361451851,0.13057877285398187,0.11394854285460396,0.32656414932310435
3.307801,0.08134862992066245,0.12708506406799053,0.1105786480933858,0.3190123420820388
3.310103,0.08082888950635411,0.1244012849697447,0.10768492347487242,0.3129150979509712
3.3124050000000005,0.08040190788547576,0.12101426178612708,0.10495465294439954,0.30637082261600235
3.314706,0.08017999391105919,0.1187616295488504,0.10284051623680986,0.30178213969671946
3.317008,0.08004979883328528,0.11612140558184893,0.10049392236808473,0.2966651267832189
3.31931,0.07954877656114889,0.1142455986373602,0.09889363833247863,0.2926880135309877
3.321611,0.07858895182644182,0.11244417798443483,0.0975864950116518,0.28861962482252845
3.323913,0.07723542216805099,0.1111032672023062,0.09661017493488293,0.2849488643052401
3.326214,0.07612148472946137,0.1098670844885628,0.096429592424443,0.28241816164246714
3.3285160000000005,0.07435428412907003,0.10975990950269192,0.09647755200716146,0.2805917456389234
3.330818,0.07216717320595419,0.10911588082047248,0.09772645869183018,0.2790095127182568
3.3331190000000004,0.06984341984498295,0.1099248317412238,0.0989841742794472,0.278752425865654
3.335421,0.06781936473812071,0.1106378634965382,0.10028201931382864,0.2787392475484876
3.3377230000000004,0.06579863730097793,0.1118544708703965,0.10155931024133072,0.2792124184127052
3.340024,0.06431428862674078,0.11247158346027396,0.1028087063094966,0.27959457839651136
3.3423260000000004,0.06301670541550837,0.11329766280342475,0.10342581889937404,0.2797401871183072
3.344627,0.0617802681353711,0.11338966690088464,0.1034972688899546,0.2786672039262104
3.3469290000000003,0.060508682343822014,0.11268152898054155,0.10284296315429547,0.27603317447865905
3.349231,0.05951329313898819,0.11137144935873193,0.10108754455010008,0.27197228704782017
3.351532,0.05887604438771137,0.10943398009360517,0.09894747051716266,0.2672574949984792
3.3538339999999995,0.05830139742303193,0.10722392422057854,0.09667819924098364,0.2622035208845941
3.356135,0.057749836167031235,0.10468010880251116,0.0945165923341726,0.25694653730371503
3.3584370000000003,0.05729893692004425,0.10282779226588454,0.09307535793513287,0.2532020871210617
3.360739,0.05651152707267675,0.10127987226447108,0.0925150138309222,0.25030641316807
3.3630400000000003,0.05565194838826844,0.10058445831505326,0.0929735661677304,0.2492099728710521
3.365342,0.05466175866737129,0.10076063637401908,0.09429147592549407,0.24971387096688444
3.3676440000000003,0.054138066645271085,0.10192439033018766,0.0961080674668304,0.2521705244422891
3.3699449999999995,0.05333838601581307,0.10318748913627307,0.09804357919796863,0.2545694543500548
3.372247,0.05264747859030995,0.1049722707502961,0.09988610806465267,0.2575058574052587
3.3745480000000003,0.05231783130872583,0.1069484013116959,0.10153043661500022,0.26079666923542194
