Wavelength,d_NH3_CH3OH_50_10K_I10m_Baselined,H2O_40K,H2O_CH3OH_CO_NH3_120K_NASA,all
2.85208,0.0013412228010552284,0.1066160681302692,0.05442127806275902,0.16237856899408346
2.854382,0.0013988837524011725,0.11065621109096227,0.05790419334237786,0.16995928818574133
2.8566830000000003,0.0014541219746989672,0.11519688987300294,0.061657969729579765,0.17830898157728167
2.858985,0.0015127520176641705,0.11942891297430945,0.06572330907237361,0.18666497406434726
2.861286,0.0015771966103449307,0.12390417807205008,0.06946594090595404,0.19494731558834905
2.863588,0.0016479402985508788,0.12851850781715446,0.07343146381196414,0.20359791192766946
2.8658900000000003,0.0017249830822820135,0.1334947932820523,0.07753411318209949,0.2127538895464338
2.868191,0.001811716782205744,0.1381730830740278,0.08160865889527627,0.22159345875150985
2.870493,0.0019095950357509593,0.14278159826941664,0.08571082371960201,0.2304020170247696
2.872795,0.0020098960183443236,0.14774480099745446,0.08996271319910333,0.2397174102149021
2.875096,0.0021009906305547218,0.15287953294210124,0.09379740873651338,0.2487779323091693
2.877398,0.0021722188645703,0.15794206756111318,0.09776971528385832,0.2578840017095418
2.879699,0.0022347252740125413,0.16319309050007108,0.1017216709071988,0.2671494866812824
2.882001,0.0023025616873607107,0.1684586498133179,0.1056561828813926,0.2764173943820712
2.884303,0.002383965383378513,0.17352118443232986,0.10975253315600274,0.2856576829717111
2.886604,0.002473121812350393,0.1786840200339351,0.11362356962913504,0.29478071147542056
2.888906,0.0025613091497030125,0.18369906916360332,0.11780132359976302,0.30406170191306936
2.891208,0.0026436819373400746,0.1887335001256568,0.12126437250118705,0.31264155456418385
2.893509,0.0027149101713556524,0.1938973048188813,0.12554727291250467,0.3221594879027416
2.895811,0.0027735402143208555,0.19904463495457844,0.13005403348787126,0.3318722086567705
2.898112,0.002831685711476429,0.2046275717731328,0.13421773563001993,0.3416769931146291
2.900414,0.0029096975868268234,0.2096460127234684,0.138358664119116,0.3509143744294112
2.902716,0.0030099985694201875,0.2142462906400935,0.14272006095159367,0.3599763501611074
2.905017,0.003086072261532063,0.2190718823581965,0.14748702262673144,0.36964497724646
2.907319,0.0030826804408646546,0.22391394863382685,0.15163328111973345,0.3786299101944249
2.909621,0.0030133903900875962,0.2283596564371801,0.15626893088046154,0.3876419777077293
2.911922,0.002986255824748329,0.23347161472877426,0.16108095531589486,0.3975388258694174
2.9142240000000004,0.003105454093917255,0.2378984252455519,0.16591381522114232,0.40691769456061133
2.916525,0.0033651706478788164,0.24235915396900365,0.1710848881015113,0.4168092127183938
2.918827,0.0036849708822344705,0.24685961544884505,0.1762932710092218,0.4268378573403013
2.921129,0.0040067092998286435,0.2511614131467382,0.1814023220259582,0.436570444472525
2.92343,0.004383201393910982,0.2551409878812276,0.1866775722553976,0.44620176153053615
2.925732,0.004901180864405216,0.2588792588025214,0.1920749280288637,0.4558553676957903
2.928034,0.005638659586661739,0.2632527692802397,0.19808329606827296,0.4669747249351745
2.930335,0.006657174878503535,0.2658930593969124,0.2030576433499323,0.4756078776253482
2.932637,0.008013903145466916,0.2704012736097079,0.2106184961633953,0.4890336729185701
2.9349380000000003,0.009712236208219292,0.27447194295640764,0.2166239569279468,0.5008081360925738
2.93724,0.011699358573511016,0.278180656583314,0.22258823129867975,0.5124682464555048
2.939542,0.013910825648661328,0.28172123281427874,0.22945521451275305,0.525087272975693
2.941843,0.016195459141065738,0.2852119008268517,0.2358972510517809,0.5373046110196984
2.944145,0.01836234800173011,0.2882630857900904,0.24227096663165104,0.5488964004234715
2.946447,0.020257406663192173,0.2916156582469188,0.24833602653078696,0.5602090914408979
2.948748,0.02183993327744304,0.2949769525283206,0.2541030907570006,0.5709199765627643
2.95105,0.023094906924384158,0.29819869761654905,0.2609419703141153,0.5822355748550485
2.953351,0.024038802161542968,0.3013787717651492,0.2667671800374845,0.5921847539641767
2.955653,0.024738486310648376,0.3025760844607444,0.2708712830450488,0.5981858538164415
2.957955,0.025262280330858162,0.30684832486425023,0.27841905312165177,0.6105296583167601
2.960256,0.02563441151265384,0.310157288198212,0.28325094393528005,0.6190426436461458
2.962558,0.02585294167279686,0.31172721662141245,0.2881404957002541,0.6257206539944633
2.96486,0.02590914898671392,0.3155279939521484,0.2951736781270303,0.6366108210658927
2.967161,0.025770084339350168,0.3176876146256684,0.3002492954829023,0.6437069944479208
2.969463,0.02539649952012561,0.32101159887972863,0.30616899163914923,0.6525770900390035
2.971764,0.024767074513416528,0.32357969167076645,0.3111142661722308,0.6594610323564138
2.974066,0.023902644789037003,0.3262030226841021,0.316054695247216,0.6661603627203552
2.976368,0.022831798549755197,0.329695144334104,0.3211046316751776,0.6736315745590368
2.978669,0.02161171220110741,0.33182423862161714,0.3261497226450429,0.6795856734677674
2.980971,0.020332995809494426,0.3348051644424596,0.3311579881333762,0.6862961483853303
2.983273,0.01908383671226885,0.337418319993793,0.33639059833156826,0.6928927550376301
2.985574,0.017923349498205527,0.34000870189207383,0.3414802675159194,0.6994123189061987
2.987876,0.016899019656648175,0.3426688583869413,0.3461435363877964,0.7057114144313859
2.990177,0.016042342665222725,0.3452994575874213,0.3512608246832965,0.7126026249359405
2.992479,0.015339751241259547,0.3479300567879014,0.35649634215634624,0.7197661501855072
2.994781,0.014766049002657891,0.35057567690848,0.3611053418975447,0.7264470678086826
2.997082,0.01429749320474589,0.3532489161402075,0.3659076754167855,0.7334540847617388
2.999384,0.01391131019447096,0.3559381453836528,0.3700936666661772,0.7399431222443009
3.001686,0.013585695410399749,0.3586157455276669,0.37550313608488395,0.7477045770229507
3.003987,0.013316287940245591,0.3612889847593944,0.3806645180490604,0.7552697907487004
3.006289,0.013110355971152931,0.3632281370895328,0.3853883551471412,0.7617268482078269
3.0085900000000003,0.012972744961218077,0.3658422617324855,0.3902144314110537,0.7690294381047573
3.010892,0.012892794902629163,0.3684384581804818,0.3943514835336728,0.7756827366167838
3.013194,0.01285500032947804,0.3707066171153589,0.3995002673067988,0.7830618847516357
3.015495,0.012847247596523965,0.3725759948489105,0.4036537939869452,0.7890770364323796
3.0177970000000003,0.01286033033338397,0.374636768177266,0.4077942379302317,0.7952913364408817
3.020098,0.012886980352913604,0.3764659286086184,0.412471558630588,0.80182446759212
3.0224,0.01291750673892028,0.37782265687558175,0.4170224128746308,0.8077625764891329
3.024702,0.01293882675454399,0.3790301450331792,0.4209801830476869,0.8129491548354101
3.027003,0.012939795846163251,0.38021873590420097,0.4250421305698133,0.8182006623201775
3.029305,0.01292186765120695,0.3817232506431015,0.4287469678302427,0.8233920861245512
3.031607,0.012892794902629163,0.3832689517758204,0.4325758488179372,0.8287375954963868
3.0339080000000003,0.012860814879193598,0.3835165546845413,0.4370428766369141,0.833420246200649
3.03621,0.012836587588712109,0.3843548189352008,0.4400412461069032,0.8372326526308159
3.038511,0.012830288493186922,0.3843417361983408,0.4438836943772673,0.841055719068795
3.040813,0.012847732142333592,0.3851688558953788,0.44747272518919495,0.8454893132269075
3.043115,0.012885526715484716,0.3853713960438041,0.4506537684294146,0.8489106911887034
3.045416,0.012939795846163251,0.384269538872706,0.4537853879970519,0.8509947227159211
3.047718,0.01300472498465364,0.3843112098123341,0.4570521958455758,0.8543681306425637
3.05002,0.013074984127049959,0.3839725122914029,0.4602085272495042,0.8572560236679571
3.052321,0.013144758723636648,0.3824961012094609,0.4635019851175578,0.8591428450506553
3.054623,0.013218894232510004,0.3818220979882659,0.4652308445663168,0.8602718367870927
3.056924,0.013303205203385586,0.3802923868672648,0.4685683961030468,0.8621639881736971
3.059226,0.013399629819501912,0.379755510110195,0.4710046924338653,0.8641598323635622
3.061528,0.013498477164666385,0.3778560905364461,0.47399046371280396,0.8653450314139166
3.063829,0.013589087231067156,0.3765294041096799,0.4758952132904586,0.8660137046312056
3.066131,0.013662253648321252,0.37459655087506666,0.4779341820573808,0.8661929865807687
3.068433,0.013714100049951638,0.372153955448723,0.4798399007266546,0.8657079562253294
3.070734,0.013740265523671646,0.37065767798858623,0.481394323683947,0.8657922671962048
3.073036,0.013739780977862015,0.3679577887373291,0.482865404761983,0.8645629744771741
3.075337,0.013712646412522749,0.36532331317037203,0.484381064054505,0.8634170236373997
3.077639,0.013661284556701993,0.3638091075152789,0.4851587600789608,0.8626291521509417
3.079941,0.013594417234973084,0.3612676647437707,0.485828402387869,0.8606904843666128
3.082242,0.013522219909338244,0.35768444848155856,0.4863371754879803,0.8575438438788772
3.084544,0.013453898950180449,0.3551124793240436,0.4878169783905898,0.8563833566648138
3.086846,0.013396722544644132,0.3520152625088901,0.4878043801995394,0.8532163652530736
3.089147,0.01335747433406412,0.34901059394337586,0.4877830601839157,0.8501511284613557
3.0914490000000003,0.013346329780442636,0.3461052572688357,0.4865988302251805,0.8460504172744588
3.09375,0.013373464345781905,0.34296685405986355,0.4864723637688671,0.8428126821745126
3.096052,0.01344614621722637,0.3396690352795233,0.4851650591744861,0.8382802406712357
3.098354,0.013549839020487144,0.3363707319533734,0.4851219345974289,0.8350425055712893
3.100655,0.013662253648321252,0.3324333127043218,0.4837434017690322,0.8298389681216752
3.102957,0.013760131901866469,0.3294795214488187,0.4819030967840582,0.8251427501347435
3.105259,0.01381876194483167,0.32533665477648405,0.4810202543189128,0.8201756710402286
3.10756,0.013813431940925745,0.3218290276605741,0.4792855803204382,0.8149280399219381
3.109862,0.013743657344339057,0.3172796270539601,0.476981080449839,0.8080043648481381
3.112163,0.013633665445553094,0.31378362903748125,0.4755589384985756,0.8029762329816099
3.114465,0.013509621718287871,0.3100855754183868,0.4731730349319586,0.7967682320686332
3.116767,0.013383639807784129,0.3057769940791588,0.4703384419456244,0.7894990758325673
3.119068,0.013262503355376685,0.3022170360158088,0.4686396243370624,0.7841191637082479
3.12137,0.013152511456590726,0.2977340181851141,0.4654396838102673,0.7763262134519722
3.123672,0.013059963206951436,0.2933769822649231,0.4630460275106962,0.7694829729825707
3.125973,0.012992611339412895,0.2890136472492069,0.4604735738073717,0.7624798323959915
3.128275,0.012950940399784736,0.2847307468378893,0.4574810188870982,0.7551627061247722
3.130576,0.01292186765120695,0.2805282810309702,0.4544046375417588,0.747854786223936
3.132878,0.012892310356819531,0.2764246625692156,0.4514145053505334,0.7407314782765685
3.13518,0.012858876695955078,0.2714537071082237,0.4484655595531265,0.7327781433573053
3.137481,0.012824473943471365,0.26730163406550617,0.4455233973970545,0.725649505406032
3.139783,0.012792009374226171,0.2624106286631032,0.4425996479817484,0.7178022860190778
3.142085,0.012758091167552086,0.2577173179510291,0.4386525378165042,0.7091279469350854
3.144386,0.012718842956972072,0.2533723956760789,0.4355950537577403,0.7016862923907913
3.146688,0.012669903830199464,0.2483578310922203,0.4326499843268105,0.6936777192492303
3.148989,0.012608851058186113,0.2442348307980805,0.4292131008991065,0.6860567827553731
3.151291,0.012535200095122384,0.23923044167622415,0.4259845721695433,0.6777502139408899
3.153593,0.012449920032627544,0.23433604445315376,0.4220897929517392,0.6688757574375205
3.155894,0.012359794512036408,0.2297246219829072,0.4191243725968049,0.6612087890917484
3.158196,0.012269184445635637,0.22466547918456264,0.4152954916091103,0.6522301552393086
3.160498,0.012178574379234869,0.22007586127574935,0.4113270614282424,0.6435814970832267
3.162799,0.012082149763118541,0.21541162331225314,0.4080772126830556,0.6355709857584273
3.165101,0.01197651877661925,0.21060056796843907,0.4039576042095831,0.6265346909546414
3.167402,0.011859743236498473,0.2053161113686167,0.40075184913307255,0.6179277037381877
3.1697040000000003,0.011730369505327324,0.20087524902335974,0.3967209125427624,0.6093265310714495
3.172006,0.011592273949582836,0.1961489891962309,0.3925475194844211,0.6002887826302349
3.174307,0.011454662939647978,0.1912356946865849,0.38885431132342296,0.5915446689496558
3.176609,0.011328681029144236,0.18620804736586635,0.3843281689156712,0.5818648973106817
3.1789110000000003,0.011214328218071608,0.1817124313441212,0.3806024961854278,0.5735292557476206
3.181212,0.011102882681856758,0.1769852024253731,0.3764281340354673,0.5645162191426971
3.183514,0.010986591687545613,0.17200067968171154,0.3724441983886912,0.5554314697579483
3.1858150000000003,0.010866908872567057,0.16716297431836785,0.3680251406048676,0.5460550237958025
3.188117,0.010749648786636649,0.16230104166454265,0.3636797337841077,0.536730424235287
3.190419,0.01063917234204106,0.15801329579512874,0.359911421022617,0.5285638891597868
3.19272,0.010536933176209178,0.1536848480777059,0.3551725630044377,0.5193943442583528
3.1950220000000003,0.010444384926569891,0.14852491975095838,0.3505616250800008,0.509530929757529
3.197323,0.010359589409884677,0.1443936821780549,0.3458920571125985,0.5006453287005381
3.199625,0.010280608442915022,0.13924635204235775,0.34126076826415713,0.4907877287494299
3.201927,0.01020405020499352,0.1353191082553084,0.33675158495974244,0.4822747434200444
3.204228,0.010134760154216459,0.13085934862347592,0.33227922713685953,0.4732733359145519
3.20653,0.010081460115157185,0.12653816909319754,0.32775696109558483,0.4643765903039395
3.208832,0.010050449183340878,0.12219373136405695,0.32240951354051056,0.4546536940879084
3.211133,0.010036397354861615,0.11781634451986152,0.31815035587386475,0.4460030977485879
3.213435,0.010029613713526798,0.11353732047502095,0.31280775377688685,0.4363746879654346
3.215736,0.010026221892859387,0.10928591554132927,0.3079433983940135,0.4272555358282022
3.218038,0.010030098259336429,0.10516969888852427,0.30360283703135,0.4188026341792107
3.22034,0.010045603725244582,0.101044760411146,0.29808143753061866,0.4091718016670092
3.222641,0.010071769198964587,0.09757541241419676,0.2935858215088735,0.4012330031220349
3.224943,0.010098903764303856,0.09345531939491476,0.28826986943142524,0.3918240925906439
3.227245,0.010120708325737195,0.08939531005602684,0.28318407661355105,0.3827000949953151
3.229546,0.010138636520693498,0.08602965486233839,0.2785062713673852,0.3746745627504171
3.231848,0.01015704926145943,0.08235970490020245,0.27361478141917256,0.3661315355808344
3.234149,0.010179338368702402,0.07877309681732282,0.2684291721645147,0.3573816073505399
3.236451,0.010202112021754998,0.07543893710126033,0.2635405894911598,0.3491816386141752
3.238753,0.0102200402167113,0.07206940554109481,0.2586040367826516,0.3408934825404577
3.241054,0.010228762041284638,0.06916794523303171,0.2530404817964825,0.3324371890707989
3.2433560000000003,0.010225370220617229,0.0656191317233032,0.2484096774938507,0.32425417943777113
3.245658,0.010206472934041666,0.06301663617978166,0.2434009274597077,0.316624036573531
3.247959,0.010179338368702402,0.059927172097582186,0.2383214337373587,0.3084279442036433
3.250261,0.0101565647156498,0.05712552822630281,0.23378075495531805,0.3010628478972707
3.252562,0.010149296528505351,0.05450025902972866,0.2283242845930771,0.2929738401513111
3.254864,0.010154626532411282,0.052072684523483466,0.22321571812215035,0.2854430291780451
3.257166,0.010165286540223134,0.04965431638762125,0.21885868220195934,0.2786782851298037
3.259467,0.01017740018546388,0.047217050965183464,0.21370456842492735,0.2710990195755747
3.261769,0.010186606555846849,0.04482387921142198,0.208666261096397,0.2636767468636658
3.264071,0.010190967468133513,0.04250920387882052,0.20408584955796666,0.25678602090492064
3.266372,0.010190967468133513,0.04061123794250068,0.19942887978161486,0.250231085192249
3.2686740000000003,0.010188544739085365,0.03884022300830384,0.19461830898361046,0.24364707673099964
3.270975,0.010187091101656477,0.036742624198416514,0.1897878718074112,0.2367175871074841
3.273277,0.010184668372608329,0.03515961303835603,0.18495695008540225,0.2303012314963666
3.275579,0.01017740018546388,0.03343947541417032,0.18095847806433726,0.22457535366397152
3.27788,0.010162379265365356,0.03185549516249057,0.17639357199181516,0.21841144641967108
3.280182,0.01013815197488387,0.030173636657265607,0.1717777886092819,0.21208957724143132
3.282484,0.010104718314019413,0.0289433748466156,0.16729380168696792,0.20634189484760293
3.284785,0.010062562828581622,0.027329837300548433,0.16325414327208446,0.2006465434012145
3.287087,0.010013139155999384,0.026247846507645136,0.1587435063302408,0.19500449199388534
3.289388,0.00995838547951122,0.025098503847203302,0.1551292791362123,0.1901861684629268
3.29169,0.009895879070068978,0.023987440305722214,0.15126454175860518,0.1851478611343964
3.293992,0.009820774469576365,0.02285699493185594,0.14694287768251718,0.17962064708394948
3.296293,0.009729679857365964,0.0217449622987556,0.14348709696823758,0.17496173912435914
3.298595,0.009626956145724452,0.02064891967737304,0.13965579325149494,0.16993166907459242
3.300897,0.00951987152179627,0.019564506155421588,0.13617917706740126,0.16526355474461912
3.3031980000000005,0.0094113332604392,0.018924905686710285,0.132692869967115,0.16102910891426447
3.3055,0.009298918632605091,0.017823533061421794,0.12928796656284655,0.15641041825687346
3.307801,0.009179235817626537,0.017096714346977127,0.12582879402789954,0.15210474419250322
3.310103,0.009057130273599832,0.016108725441142006,0.12317154480788985,0.14833740052263167
3.3124050000000005,0.008947622920623502,0.015611581440461854,0.11981800325944215,0.1443772076205275
3.314706,0.00886185831231903,0.014967135513654247,0.11758763889771627,0.14141663272368954
3.317008,0.008790630078303451,0.014263574998071809,0.1149735142547636,0.1380277193311389
3.31931,0.008712618202953059,0.013605561788594569,0.11311625016645267,0.1354344301580003
3.321611,0.008614739949407842,0.013130222349347754,0.11133263704120544,0.13307759933996105
3.323913,0.008503778959002624,0.012231389872484516,0.11000498152281987,0.13074015035430706
3.326214,0.008392817968597404,0.011808381380677715,0.10878101880769506,0.12898221815697014
3.3285160000000005,0.008287186982098111,0.011352908319625724,0.10867490327538612,0.12831499857710996
3.330818,0.00818300963302771,0.010738019687205535,0.10803724098991332,0.12695827031014656
3.3331190000000004,0.008077378646528417,0.010451653113714337,0.10883819521323136,0.1273672269734741
3.335421,0.007974654934886905,0.00978491807966376,0.10954417845786196,0.12730375147241266
3.3377230000000004,0.007885983051724655,0.009357064129760666,0.11074875934060156,0.1279918065220869
3.340024,0.007820569367424634,0.009067790281411685,0.11135977160654473,0.12824813125538104
3.3423260000000004,0.0077784138819868434,0.008651565430939706,0.1121776849331998,0.12860766424612635
3.344627,0.007755640228934243,0.008295424260861821,0.1122687795454102,0.12831984403520624
3.3469290000000003,0.007750794770837946,0.007807002084755001,0.11156764175887587,0.12712543861446884
3.349231,0.007765815690936468,0.007486232758780087,0.11027051262649698,0.12552256107621354
3.351532,0.0078031257182779624,0.007235722575201492,0.10835219576617268,0.12339104405965215
3.3538339999999995,0.007860302123814276,0.00682143590796803,0.1061639868898846,0.1208457249216669
3.356135,0.007929107628781705,0.0063814683128241905,0.10364531777142902,0.11795589371303493
3.3584370000000003,0.008000820408606913,0.006390190137397527,0.1018113118819803,0.11620232242798473
3.360739,0.008064780455478043,0.005815518807176608,0.10027869348612133,0.11415899274877594
3.3630400000000003,0.008110327761583243,0.005618793208466918,0.09959015389063737,0.11331927486068755
