Wavelength,d_NH3_CH3OH_50_10K_I10m_Baselined,CO_CH3OH_10K,H2O_CH3OH_CO_NH3_100K_NASA,all
2.85208,0.001380976899844717,0.003637038150241326,0.07341977657443946,0.07843779162452551
2.854382,0.0014403469327498911,0.003912934185506546,0.07849965619662838,0.08385293731488483
2.8566830000000003,0.0014972224264573686,0.004218265783304582,0.08370625841006027,0.0894217466198222
2.858985,0.0015575902750416212,0.00456550563962392,0.08883453209268449,0.09495762800735004
2.861286,0.0016239450177003448,0.0049521592152668575,0.09478001681647404,0.10135612104944124
2.863588,0.0016967855622730796,0.0053742352475170865,0.09974814108260616,0.10681916189239632
2.8658900000000003,0.0017761119087598247,0.005827742473658289,0.10468533306268683,0.11228918744510497
2.868191,0.0018654164120373547,0.006307691815295074,0.10962302395060708,0.11779613217793952
2.870493,0.0019661957956242887,0.006808595286192506,0.11481316220533415,0.12358795328715096
2.872795,0.0020694697184089187,0.0073229692687575,0.11915615494852355,0.12854859393569001
2.875096,0.0021632643922423027,0.007840835606199269,0.12414872569879308,0.13415282569723466
2.877398,0.0022366038446545765,0.008354710680924724,0.1285231496358735,0.1391144641614528
2.879699,0.002300962955955143,0.008870082479168795,0.13302529397987592,0.14419633941499985
2.882001,0.0023708100534906413,0.009396929157722271,0.13732288610966722,0.14909062532088013
2.884303,0.0024546265705332397,0.00993525071658515,0.14134308548067473,0.1537329627677931
2.886604,0.002546425613008467,0.010471576644089872,0.1455184451897789,0.15853644744687725
2.888906,0.0026372268398046155,0.010989442981531644,0.14984497397426352,0.16347164379559978
2.891208,0.0027220411725262924,0.011482862834835987,0.15381628037699616,0.16802118438435842
2.893509,0.0027953806249385663,0.011955328558879682,0.15772572220762596,0.1724764313914442
2.895811,0.002855748473522818,0.012408835785020885,0.1616526258126396,0.1769172100711833
2.898112,0.0029156174142675314,0.012840889974061898,0.16631641629665275,0.18207292368498215
2.900414,0.0029959415764333553,0.013245005324088713,0.17027425218771786,0.1865151990882399
2.902716,0.0030992154992179853,0.01361918620374317,0.17492956123845882,0.19164796294142
2.905017,0.003177544030025652,0.013972911861976516,0.1790400629284229,0.19619051882042507
2.907319,0.003174051675148877,0.014318156086937697,0.18345739293970367,0.20094960070179024
2.909621,0.0031027078540947607,0.01465791232566394,0.1879176290251848,0.20567824920494351
2.911922,0.003074769015080561,0.014980206790006315,0.19270165629852687,0.2107566321036138
2.9142240000000004,0.0031975003436072232,0.015273065691815869,0.1975859640476164,0.21605653008303952
2.916525,0.0034649149456002755,0.015526011966462284,0.20289284673679567,0.22188377364885828
2.918827,0.0037941941196961977,0.015727071825796614,0.20800216192151744,0.22752342786701024
2.921129,0.004125468925150278,0.01586726492870715,0.21295032987406798,0.23294306372792545
2.92343,0.004513120316472295,0.015949584722231132,0.21812051181521352,0.2385832168539169
2.925732,0.005046452796939782,0.015979020284763945,0.2236558942949018,0.2446813673766055
2.928034,0.00580579052871856,0.015960560694700997,0.2295864117835052,0.2513527630069247
2.930335,0.0068544948074301185,0.015898197214758585,0.23419582131300856,0.25694851333519725
2.932637,0.008251436758140093,0.01579592110765303,0.2413860810964486,0.2654334389622417
2.9349380000000003,0.010000108735725256,0.015661215990977428,0.24709907476701284,0.2727603994937156
2.93724,0.012046129785675829,0.015505556745041175,0.2529233248857944,0.2804750114165114
2.939542,0.014323145165333088,0.015339919342314138,0.2590888279668208,0.28875189247446803
2.941843,0.016675495628760778,0.015172286308228937,0.26526879937519376,0.2971165813121835
2.944145,0.018906611487180418,0.015009642352539132,0.2711429402779292,0.3050591941176487
2.946447,0.02085784004761853,0.014854980922281956,0.27686690992096336,0.3125797308908638
2.948748,0.02248727305155381,0.01469632822930847,0.28319555586551903,0.3203791571463813
2.95105,0.02377944435596053,0.014521710485469718,0.2890876574504779,0.3273888122919081
2.953351,0.024751316827383046,0.014330628782926175,0.29490043268895005,0.33398237829925925
2.955653,0.025471739747677764,0.014144536158778025,0.29889069758958514,0.3385069734960409
2.957955,0.02601105912221972,0.01398388783444638,0.30556309103558343,0.34555803799224954
2.960256,0.026394220342985882,0.013850679441289395,0.3108111025996971,0.35105600238397233
2.962558,0.02661922777861809,0.013732438283318585,0.3144695937870386,0.3548212598489753
2.96486,0.026677101088004654,0.013617689480224552,0.3210257417064242,0.3613205322746534
2.967161,0.026533914538056882,0.013500945045772362,0.32651971483543074,0.36655457441926004
2.969463,0.0261492565937721,0.013377714809406159,0.3314459308430416,0.3709729022462198
2.971764,0.025501175310210573,0.013247998771125948,0.33672038452265074,0.3754695586039873
2.974066,0.02461112372447251,0.013119280548524813,0.3420626896684373,0.3797930939414347
2.976368,0.023508537399090708,0.013000540482714464,0.3462984172261258,0.38280749510793105
2.978669,0.02225228745913081,0.012888785126657669,0.35078559433494205,0.3859266669207305
2.980971,0.02093566967058666,0.012771541784365941,0.35629802705401153,0.3900052385089641
2.983273,0.01964948526025441,0.012636337759850794,0.360768740204123,0.39305456322422816
2.985574,0.01845460098455784,0.012480678513914541,0.3657987290423579,0.3967340085408303
2.987876,0.017399909811771804,0.012305561862236254,0.3705652945413162,0.40027076621532426
2.990177,0.016517840751466364,0.012113981251853171,0.3752949408601486,0.4039267628634681
2.992479,0.015794424384134413,0.011913919208197923,0.3798898820623053,0.4075982256546376
2.994781,0.015203717502119912,0.011713358256703131,0.38457213213638136,0.4114892078952044
2.997082,0.014721273621285431,0.011515790752245578,0.3892528854869389,0.4154899498604699
2.999384,0.014323644073172631,0.011313733077232171,0.3929338275270597,0.4185712046774645
3.001686,0.013988378005002234,0.011100200521909362,0.3979987399140624,0.42308731844097397
3.003987,0.013710985246218395,0.01087419527059807,0.4031619371454544,0.4277471176622709
3.006289,0.013498949414414202,0.01063970858601461,0.4070658909898493,0.4312045489902781
3.0085900000000003,0.01335725958798505,0.010400232823035758,0.4114248487839039,0.4351823411949247
3.010892,0.01327493979446107,0.010154770165982431,0.415390168292562,0.4388198782530056
3.013194,0.013236024982977006,0.009903819522694177,0.41957899851333386,0.44271884301900505
3.015495,0.013228042457544376,0.009645884169652372,0.4236860078484212,0.4465599344756179
3.0177970000000003,0.01324151296921194,0.009378968475498859,0.4270995352865489,0.4497200167312597
3.020098,0.013268952900386596,0.00910107680887548,0.43108331438527,0.4534533440945321
3.0224,0.01330038409427757,0.008816200432498554,0.434152096506276,0.4562686810330521
3.024702,0.013322336039217298,0.008532820779640245,0.4372662792406801,0.4591214360595378
3.027003,0.013323333854896377,0.008258920375733182,0.4409317551377753,0.4625140093684049
3.029305,0.013304874264833427,0.00799200468157967,0.4433749068279992,0.4646717857744122
3.031607,0.01327493979446107,0.007723093356068,0.4466502367945745,0.4676482699451036
3.0339080000000003,0.013242011877051478,0.007448195136481857,0.4497574348192251,0.4704476418327585
3.03621,0.013217066485074513,0.0071782859952911095,0.4518149307494851,0.4722102832298507
3.038511,0.013210580683160505,0.00692933098336101,0.4542056971165573,0.4743456087830788
3.040813,0.013228541365383914,0.006704323547728797,0.4570260231334729,0.4769588880465856
3.043115,0.013267456176867979,0.0064902920845664475,0.4589922189290971,0.4787499671905316
3.045416,0.013323333854896377,0.006272269358687785,0.4609843579323775,0.4805799611459617
3.047718,0.01339018750539464,0.00605424663280912,0.4618928691081785,0.4813373032463822
3.05002,0.013462529142127836,0.005852188957795713,0.4641584096075263,0.4834731277074498
3.052321,0.013534371871021493,0.005679566845315123,0.4651123213967254,0.484326260113062
3.054623,0.013610704770470999,0.005526901046416104,0.4668250720098638,0.4859626778267509
3.056924,0.013697514734550836,0.0053772286945543216,0.4669253524856112,0.4860000959147163
3.059226,0.013796797394619151,0.005223565079976225,0.4679675709624087,0.4869879334370041
3.061528,0.013898574593885164,0.005080877437867992,0.4693051428802135,0.4882845949119666
3.063829,0.013991870359879009,0.004967625358292575,0.4699696881224798,0.4889291838406514
3.066131,0.014067205443649441,0.004882312117731359,0.4703239126885527,0.4892734302499335
3.068433,0.01412058858248014,0.004802985771244615,0.4705124998518986,0.4894360742056234
3.070734,0.014147529605815263,0.0047081932817321535,0.4705264692714056,0.489382192158953
3.073036,0.014147030697975726,0.004600429188391668,0.4705274670870847,0.4892749269734521
3.075337,0.014119091858961525,0.004493662910730264,0.4705274670870847,0.4891402218567765
3.077639,0.014066207627970359,0.004398870421217801,0.4702665382870057,0.4887316163361939
3.079941,0.013997358346113941,0.004309067010100732,0.4691923897084776,0.4874988150646923
3.082242,0.013923021078022587,0.004212777797069651,0.4692293088886035,0.4873651077636957
3.084544,0.013852675072647551,0.004104015888050088,0.4686371052830704,0.486593796243768
3.086846,0.01379380394758192,0.003980286743844349,0.467773495812828,0.4855475865042542
3.089147,0.013753392412579236,0.003843087087971047,0.466681885459916,0.4842783649604663
3.0914490000000003,0.01374191753226983,0.0036949114596278813,0.4650629295206111,0.4824997585125088
3.09375,0.01376985637128403,0.0035432434764079406,0.4641289740449935,0.4814420738926855
3.096052,0.013844692547214923,0.003393571124546159,0.4622830150386981,0.4795212787104592
3.098354,0.013951458824876329,0.003245395496202993,0.461181925436835,0.4783787797579143
3.100655,0.014067205443649441,0.0030942264208225928,0.4592042547609014,0.4763656866253734
3.102957,0.014167984827236375,0.002939066082725877,0.4579115845486551,0.4750186354586173
3.105259,0.014228352675820625,0.0027834068367896233,0.4556021401594277,0.472613899672038
3.10756,0.01422286468958569,0.002630242130051065,0.4534678124218786,0.4703209192415154
3.109862,0.014151021960692038,0.002482066501707901,0.4516951928679957,0.4683282813303956
3.112163,0.014037769881116621,0.0023378821360810487,0.4499839389783759,0.4663595909955736
3.114465,0.013910049474194568,0.0021971901253309734,0.4479733403850327,0.4640805799845582
3.116767,0.013780333435914355,0.0020599904694576726,0.4450512371688512,0.4608915610742232
3.119068,0.013655606476029536,0.0019282787998193035,0.442293274631878,0.4578771599077268
3.12137,0.01354235439645412,0.001803052932094945,0.4404009171965055,0.4557463245250546
3.123672,0.013447062999102118,0.001683315050605519,0.4381717969694441,0.4533021750191517
3.125973,0.013377714809406159,0.0015665706161533282,0.4347123700100787,0.4496566554356382
3.128275,0.01333480873520578,0.0014533185365779124,0.4328225071139039,0.4476106343856876
3.130576,0.013304874264833427,0.001349545705953743,0.4298714672430291,0.44452588721381625
3.132878,0.013274440886621528,0.0012602412026762125,0.42703118491253206,0.44156586700182976
3.13518,0.013240016245693318,0.0011829104875476244,0.42419838619962796,0.438621312932869
3.137481,0.013204593789086031,0.0011110677586539687,0.4213745678278357,0.4356902293755757
3.139783,0.0131711669638369,0.0010377283062416953,0.41864304740635816,0.4328519426764367
3.142085,0.013136243415069151,0.0009643888538294213,0.4153961551866366,0.4294967874555352
3.144386,0.01309583188006647,0.0008950406641334619,0.41178356352053264,0.4257744360647326
3.146688,0.013045442188273002,0.0008326771841910526,0.4090734961361552,0.4229516155086193
3.148989,0.012982579800491056,0.0007753027826440357,0.4064916480665395,0.4202495306496746
3.151291,0.01290674580888108,0.0007209218281342544,0.40247693668176704,0.4161046043187823
3.153593,0.012818938029122168,0.0006685365049826304,0.3999040689532629,0.4133915434873677
3.155894,0.012726141170967866,0.0006216391680659387,0.3961268377001111,0.4094746180391449
3.158196,0.01263284540497402,0.0005832232644214141,0.393300524789121,0.4065165934585165
3.160498,0.012539549638980177,0.000550295347011822,0.3897438108010455,0.4028336557870375
3.162799,0.012440266978911858,0.000517866337441769,0.386529347590894,0.3994874809072476
3.165101,0.012331505069892295,0.00048144606515540186,0.38342364628976205,0.3962365974248097
3.167402,0.01221126828056333,0.0004415334379922597,0.3791829296536781,0.3918357313722337
3.1697040000000003,0.012078059887406343,0.0003991262716314212,0.3760472938821738,0.3885244800412115
3.172006,0.01193587115313765,0.00035821582878920046,0.3725389739545336,0.3848330609364605
3.174307,0.011794181326708496,0.00032578681921914754,0.3685082975188958,0.38062826566482333
3.176609,0.011664465288428284,0.00030782613699573364,0.3653606879592425,0.3773329793846665
3.1789110000000003,0.011546723038297015,0.00030483268995849794,0.3617989848927716,0.3736505406210271
3.181212,0.01143197423520298,0.0003088239526748122,0.3582268047616704,0.3699676029495482
3.183514,0.011312236353713557,0.0003133141232306656,0.35422406716504673,0.36584961764199103
3.1858150000000003,0.011189006117347355,0.0003133141232306656,0.3502996580992308,0.3618019783398088
3.188117,0.011068270420178848,0.0003033359664398801,0.3469320301823407,0.3583036365689594
3.190419,0.010954519432763894,0.00028288074501876977,0.3421993904164711,0.3534367905942538
3.19272,0.010849249878621106,0.0002619266157581201,0.3383587978676978,0.34946997436207694
3.1950220000000003,0.010753958481269105,0.00025144955112779536,0.33489088947506024,0.34589629750745715
3.197323,0.010666649609349729,0.0002554408138441096,0.3313246962380335,0.3422467866612274
3.199625,0.01058532763150483,0.00026891132551167,0.3267806436355098,0.3376348825925263
3.201927,0.010506500192857624,0.00028637309989554467,0.3223548321909569,0.3331477054837101
3.204228,0.010435156371803507,0.0003033359664398801,0.3179564606775786,0.328694953015822
3.20653,0.010380276509454188,0.0003153097545888228,0.3140105985746625,0.32470618483870545
3.208832,0.010348346407723672,0.00031979992514467615,0.3098477115615468,0.3205158578944151
3.211133,0.010333878080377031,0.00032379118786099047,0.30531363711581383,0.31597130638405185
3.213435,0.010326893370623485,0.0003357649760099331,0.3007107133882244,0.31137337173485785
3.215736,0.010323401015746707,0.0003577169209496612,0.2965543121770227,0.3072354301137191
3.218038,0.010327392278463023,0.00037966886588938943,0.29144350026878235,0.3021505614131348
3.22034,0.010343357329328279,0.00039064483835925354,0.2871793349642402,0.2979133371319277
3.222641,0.010370298352663402,0.00039164265403833205,0.282528516084055,0.29329045709075674
3.224943,0.0103982371916776,0.0003976295481128034,0.277224626841913,0.2880204935817034
3.227245,0.01042068804445687,0.0004195814930525316,0.2725323986110461,0.2833726681485555
3.229546,0.01043914763451982,0.0004505137791039666,0.2673901555089148,0.2782798169225386
3.231848,0.010458106132422314,0.00047446135540185196,0.2628071880949069,0.2737397555827311
3.234149,0.01048105589304112,0.00048144606515540186,0.25786201358939365,0.2688245155475902
3.236451,0.010504504561499466,0.00047795371027862686,0.2528065804513421,0.2637890387231202
3.238753,0.01052296415156242,0.0004739624475623127,0.2475750328459333,0.2585719594450581
3.241054,0.010531944492674129,0.0004759580789204697,0.2422985835349659,0.2533064861065605
3.2433560000000003,0.010528452137797352,0.0004869340513903338,0.2376871783741044,0.2487025645632921
3.245658,0.01050899473205532,0.0005098838120091406,0.2323204267441804,0.2433393052882449
3.247959,0.01048105589304112,0.0005368248353442613,0.2269142613949328,0.2379321421233182
3.250261,0.010457607224582777,0.0005547855175676754,0.22156696717075086,0.2325793599129013
3.252562,0.010450123606989685,0.000555783333246754,0.2165354816089972,0.22754138854923364
3.254864,0.010455611593224615,0.0005507942548513612,0.2120393241590693,0.22304573000714525
3.257166,0.01046658756569448,0.0005562822410862934,0.206897081056938,0.21791995086371874
3.259467,0.010479060261682962,0.0005787330938655607,0.2017797833467836,0.2128375767023321
3.261769,0.01048853951063421,0.0006026806701634461,0.1967228534852135,0.2078140736660112
3.264071,0.010493029681190062,0.0006101642877565352,0.19180511891087484,0.20290831287982145
3.266372,0.010493029681190062,0.0006016828544843675,0.1867117687770184,0.1978064813126928
3.2686740000000003,0.010490535141992366,0.0005941992368912782,0.1820744204085008,0.1931591547873844
3.270975,0.01048903841847375,0.0006031795780029852,0.17730037129194945,0.18839258928842614
3.273277,0.010486543879276052,0.0006216391680659387,0.1724370176721206,0.1835452007194626
3.275579,0.010479060261682962,0.0006311184170171847,0.16768242596131128,0.17879260464001145
3.27788,0.010463594118657243,0.0006211402602263992,0.1633005184066378,0.17438525278552144
3.280182,0.010438648726680282,0.0006051752093611425,0.1586970957712089,0.16974091970725033
3.282484,0.01040422408575207,0.0005991883152866711,0.15418597108609475,0.1651893834871335
3.284785,0.010360819103712155,0.0006111621034356136,0.14987440953679634,0.16084639074394413
3.287087,0.010309930504079148,0.0006366064032521168,0.14582976368165146,0.1567763005889827
3.289388,0.010253553918211209,0.0006685365049826304,0.14144137032506396,0.1523634607482578
3.29169,0.010189194806910645,0.0007084491321457725,0.13771203422450787,0.1486096781635643
3.293992,0.010111864091782056,0.0007593377317787789,0.13372825512578676,0.1445994569493476
3.296293,0.010018069417948671,0.0008266902901165813,0.12993655554528824,0.1407813152533535
3.298595,0.009912300955966343,0.0009189882404313473,0.12625711022868608,0.13708839942508375
3.300897,0.009802042323428165,0.001046708647353402,0.1226624792448056,0.13351123021558714
3.3031980000000005,0.009690286967371366,0.0012188318519944525,0.11919556866784715,0.13010468748721302
3.3055,0.009574540348598254,0.0014458349189848231,0.11616620026616467,0.12718657553374774
3.307801,0.009451310112232051,0.0017371970972757606,0.11273072088309725,0.12391922809260505
3.310103,0.009325585336668156,0.0020919205711881863,0.10978067882790148,0.12119818473575783
3.3124050000000005,0.00921283216493228,0.002498031552573157,0.10699727199111186,0.1187081357086173
3.314706,0.009124525477333828,0.002943556253281731,0.10484199012430218,0.11691007185491775
3.317008,0.009051186024921555,0.0034165208851649658,0.10244972703371134,0.11491743394379784
3.31931,0.00897086186275573,0.0039049516600739172,0.10081829839841792,0.11369411192124755
3.321611,0.008870082479168795,0.004395876974180565,0.09948571555900852,0.11275167501235787
3.323913,0.008755832583914302,0.004871336145261496,0.09849039441912764,0.11211756314830344
3.326214,0.008641582688659808,0.005312370675414215,0.09830629742633763,0.11226025079041167
3.3285160000000005,0.008532820779640245,0.005698026435378076,0.0983551903946125,0.11258603760963083
3.330818,0.008425555594139301,0.006006351480213349,0.09962840320111674,0.1140603102754694
3.3331190000000004,0.008316793685119738,0.0062143960493012285,0.10091059634873267,0.11544178608315366
3.335421,0.008211025223137413,0.006317171064246318,0.10223369993919083,0.11676189622657457
3.3377230000000004,0.008119725088501725,0.006322160142641711,0.10353584940038836,0.1179777346315318
3.340024,0.008052372530163924,0.00624133707263635,0.10480956111473214,0.1191032707175324
3.3423260000000004,0.008008967548124007,0.006121599191146922,0.10543868390039116,0.11956925063966208
3.344627,0.00798551887966566,0.0060183252683622904,0.10551152444496388,0.11951536859299185
3.3469290000000003,0.007980529801270267,0.0059739224706432965,0.10484448466349988,0.11879893693541345
3.349231,0.007995995944295984,0.006000364586138878,0.1030549022430725,0.11705126277350734
3.351532,0.008034411847940508,0.006103139601083969,0.10087317826076724,0.1150107297097917
3.3538339999999995,0.008093282973006143,0.006285739870355344,0.0985597426088236,0.11293876545218508
