Wavelength,H2O_NH3_CO2_CH4_10_1_1_1_72K_b,HNCO_NH3,H2O_CH3OH_CO_NH3_100K_NASA,all
2.85208,0.16271226817356027,1.0306766400774294e-05,0.07346519480328863,0.2361877697432497
2.854382,0.1719812726374526,1.0745352205062559e-05,0.0785482168912541,0.25054023488091176
2.8566830000000003,0.18042353747250395,1.118393800935083e-05,0.08375803996236071,0.264192761372874
2.858985,0.1904925655372783,1.1622523813639094e-05,0.08888948604782496,0.2793936741089169
2.861286,0.19937685919856074,1.2061109617927366e-05,0.09483864870960892,0.2942275690177876
2.863588,0.20917581250796752,1.2499695422215636e-05,0.09980984630850502,0.3089981585118948
2.8658900000000003,0.2192059808957106,1.29382812265039e-05,0.10475009248631942,0.3239690116632565
2.868191,0.2298127297414057,1.3376867030792167e-05,0.1096908378806029,0.3395169444890393
2.870493,0.2404384226796535,1.3815452835080435e-05,0.11488418680823052,0.3553364249407191
2.872795,0.2512112966446574,1.4254038639368704e-05,0.11922986617139487,0.3704554168546916
2.875096,0.2623722816340115,1.4692624443656974e-05,0.12422552537727488,0.38661249963573
2.877398,0.2733962862618303,1.5131210247945237e-05,0.12860265537798998,0.4020140728500682
2.879699,0.2854811600726037,1.5569796052233507e-05,0.13310758479478435,0.4186043146634402
2.882001,0.2972843012249001,1.5993762329712164e-05,0.13740783545926424,0.434708130446494
2.884303,0.30944640864377315,1.6432348134000436e-05,0.14143052176694698,0.4508933627588542
2.886604,0.3212291484656281,1.6856314411479093e-05,0.1456084643965073,0.4668544691765469
2.888906,0.33382454128340033,1.7294900215767362e-05,0.14993766961619268,0.4837795057998088
2.891208,0.3468906219392142,1.771886649324602e-05,0.15391143270990754,0.500819773515615
2.893509,0.3584091159572563,1.8157452297534287e-05,0.15782329296145908,0.5162505663710129
2.895811,0.371569917075834,1.858141857501295e-05,0.16175262578942765,0.5333411242838367
2.898112,0.3846369692235737,1.9020004379301213e-05,0.16641930134219735,0.5510752905701504
2.900414,0.3974135452855043,1.9443970656779874e-05,0.17037958559124766,0.5678125748474088
2.902716,0.40999485147035264,1.9867936934258525e-05,0.17503777446404334,0.5850524938713302
2.905017,0.4233183774864989,2.0291903211737196e-05,0.17915081895262586,0.6024894883423364
2.907319,0.4356140650451672,2.0730489016025454e-05,0.1835708815696801,0.6192056771038633
2.909621,0.44891038928739146,2.124217245436177e-05,0.18803387680307346,0.6369655082629193
2.911922,0.4621814547395455,2.365439437794724e-05,0.19282086352488653,0.6550259726588099
2.9142240000000004,0.4754889511389164,2.6285909203676848e-05,0.1977081927569806,0.6732234298051006
2.916525,0.4893856573912744,2.8917424029406457e-05,0.2030183583383682,0.692432933153672
2.918827,0.5032386465069724,3.153431932832645e-05,0.20813083419800815,0.7114010150243089
2.921129,0.5173927981196627,3.410735604681763e-05,0.2130820631381419,0.7305089686138514
2.92343,0.5338012967461317,3.670963181892801e-05,0.2182554434070072,0.7520934497849578
2.925732,0.548542229481995,3.9443483332324876e-05,0.2237942501312241,0.7723759230965515
2.928034,0.5651314256066597,4.207499815805449e-05,0.22972843629893624,0.794901936903754
2.930335,0.5794808470964325,4.453107866206879e-05,0.2343406972565785,0.8138660754316731
2.932637,0.5925746152721312,4.837601421299594e-05,0.2415354050086663,0.8341583962950105
2.9349380000000003,0.6050801450867684,5.624131963656554e-05,0.2472519327958685,0.8523883192022734
2.93724,0.6171446175671005,6.359494162179883e-05,0.2530797858556709,0.8702879983643932
2.939542,0.6275240373021623,7.127019319684352e-05,0.25924910298031023,0.8868444104756694
2.941843,0.6365943716672322,7.893082524507859e-05,0.2654328973825522,0.9021061998750296
2.944145,0.6475834025857227,8.657683776650407e-05,0.27131067208926063,0.9189806515127498
2.946447,0.6569218687223085,9.391584022492772e-05,0.27703818263878216,0.9340539672013156
2.948748,0.6668272003975885,0.00010186886280935502,0.2833707435488039,0.9502998128092016
2.95105,0.6769040003977691,0.00011642991151172551,0.2892664900483985,0.9662869203576794
2.953351,0.6845860728008956,0.00013169269750095726,0.2950828611294126,0.9798006266278092
2.955653,0.6938958799256707,0.0001443970662985074,0.29907559444895176,0.9931158714409208
2.957955,0.6997175452909233,0.00015270095752636524,0.3057521155061557,1.0056223617546054
2.960256,0.7050942673541675,0.00016147267361213058,0.3110033735441942,1.0162591135719738
2.962558,0.7124076585714593,0.00015986452566307363,0.3146641279118087,1.027231651008931
2.96486,0.7166623074604245,0.00015721839131053442,0.3212243315317217,1.0380438573834567
2.967161,0.7220127992416725,0.00015416291020732618,0.3267217032890067,1.0488886654408864
2.969463,0.7256850387211309,0.0001511659072113563,0.3316509667045018,1.057487171332844
2.971764,0.7326904669979496,0.0001485051533320075,0.3369286832154005,1.069767655366682
2.974066,0.7380030705940922,0.00014549353080922804,0.3422742931660913,1.0804228572909929
2.976368,0.7437538170487626,0.00014249652781325825,0.34651264098840784,1.0904089545649838
2.978669,0.748799260365315,0.00013977729582667097,0.3510025939111304,1.099941631572272
2.980971,0.755695881546446,0.00013683877093793954,0.3565184366777706,1.1123511569951543
2.983273,0.7634542160657463,0.00013384176794196972,0.3609919154570143,1.1245799732907025
2.985574,0.7668432656488391,0.00013125411169666898,0.3660250158980737,1.1329995356586091
2.987876,0.7752520140124509,0.0001282278696470799,0.37079453004346974,1.1461747719255675
2.990177,0.7836568764083596,0.00012442679267658156,0.37552710217015534,1.1593084053711915
2.992479,0.7885590246658588,0.00011992397841922205,0.3801248858501948,1.168803834494473
2.994781,0.7960501989055692,0.00011547964226910092,0.3848100324123197,1.1809757109601575
2.997082,0.8041393264255983,0.0001110499256457894,0.3894936813250374,1.1937440576762814
2.999384,0.8096646867534871,0.00010662020902247792,0.3931769004337597,1.2029482073962692
3.001686,0.8171816055292305,0.000102205111925976,0.3982449460276533,1.2155287566688098
3.003987,0.8248869937385757,9.777539530266451e-05,0.4034113372659517,1.22839610639983
3.006289,0.8314790522009738,9.293633192868395e-05,0.4073177061363436,1.2388896946692458
3.0085900000000003,0.8389061079735824,9.35064934742587e-05,0.41167936042651776,1.2506789748935745
3.010892,0.8468776849705921,9.692746274770718e-05,0.4156471329226039,1.2626217453559436
3.013194,0.8540074642139109,0.00010017299769944036,0.4198385543968289,1.2739461916084394
3.015495,0.8630165945876564,0.00010343315217798316,0.423948104370128,1.2870681321099624
3.0177970000000003,0.8703499013894267,0.00010670792618333553,0.4273637434514342,1.2978203527670442
3.020098,0.8778833355279083,0.00011028971025168975,0.4313499869568756,1.3093436121950357
3.0224,0.8855964956726599,0.00011353524520342293,0.4344206674580615,1.320130698375925
3.024702,0.8907672614476381,0.00011676616062834651,0.4375367766579319,1.3284208042661985
3.027003,0.8944807893339424,0.00011998245652646045,0.4412045200561133,1.335805291846582
3.029305,0.9024717961694676,0.00012321337195138403,0.4436491831050984,1.3462441926465174
3.031607,0.909397562108372,0.00012679515601973822,0.4469265392244751,1.3564508964888669
3.0339080000000003,0.9130979748536782,0.00013002607144466178,0.45003565939377865,1.3632636603189014
3.03621,0.9179957513975116,0.00013338856261087186,0.4520944281121807,1.3702235680723032
3.038511,0.9229707615494444,0.0001381983869312332,0.4544866734319146,1.3775956333682902
3.040813,0.928269764258626,0.00014357837279716927,0.4573087441315089,1.3857220867629323
3.043115,0.9313663947720582,0.00014897297818991498,0.459276156236073,1.390791523986321
3.045416,0.9369651027403436,0.0001542360078413742,0.4612695275970282,1.3983888663452133
3.047718,0.939453579308236,0.00015960137418050062,0.4621786007871858,1.401791781469602
3.05002,0.9427202209086802,0.00016463049140300612,0.4644455427731857,1.4073303941732689
3.052321,0.9454088248132836,0.00016990814058127495,0.4654000446620278,1.4109787776158926
3.054623,0.9491451827598438,0.00017525888739359182,0.4671138548003096,1.4164342964475467
3.056924,0.94874638532431,0.0001806096342059087,0.4672141973105906,1.4161411922691067
3.059226,0.951665232815324,0.00018569722953565258,0.4682570605144562,1.420107990559316
3.061528,0.9534945521115727,0.000190580151490062,0.4695954598680052,1.423280592131068
3.063829,0.9526478968982532,0.0001951999219618984,0.4702604162047926,1.4231035130250078
3.066131,0.9549197307666959,0.00019970273621925795,0.47061485989782503,1.4257342934007402
3.068433,0.9534955236034984,0.00020397163804766378,0.4708035637231296,1.424503058964676
3.070734,0.9523812223646256,0.0002085475499390713,0.4708175417842632,1.423407311698828
3.073036,0.9513354113065208,0.00021274335413342912,0.4708185402172013,1.4223666948778555
3.075337,0.9497358498507196,0.0002173338855516463,0.4708185402172013,1.4207717239534727
3.077639,0.9476403417668064,0.00022158816785324247,0.4705574500038831,1.4184193799385427
3.079941,0.9426769895179828,0.00022603250400336363,0.4694826369459976,1.4123856589679835
3.082242,0.9411303743721368,0.00023037450346581747,0.4695195789647081,1.4108803278403108
3.084544,0.9363788073631338,0.00023473112245508092,0.4689270090159343,1.4055405475015232
3.086846,0.9323281717785832,0.000238766111854533,0.4680628653079921,1.40062980319843
3.089147,0.929386979973276,0.00024243561308374482,0.4669705796736895,1.3965999952600492
3.0914490000000003,0.923674607449674,0.00024597353857167014,0.4653506222315909,1.3892712032198369
3.09375,0.9147096799585516,0.00024983309364940695,0.4644160890015112,1.3793756020537122
3.096052,0.9131737512238892,0.0002535756925126669,0.4625689880659904,1.3759963149823924
3.098354,0.9060745739762324,0.00025706975942016343,0.4614672173187758,1.3677988610544285
3.100655,0.9007231107030588,0.0002608415973370425,0.4594883232354233,1.3604722755358192
3.102957,0.8935321274684155,0.00026430642519091976,0.4581948533640898,1.3519912872576962
3.105259,0.8871372818669512,0.00026664554948045715,0.4558839803288126,1.3432879077452442
3.10756,0.8793211435780668,0.0002676981554107491,0.4537483322741753,1.3333371740076527
3.109862,0.8725192428596994,0.0002687361418142313,0.4519746161596064,1.3247625951611202
3.112163,0.865297657629394,0.0002694524986279021,0.4502623036707317,1.3158294137987536
3.114465,0.8569982021074328,0.00027046124597776517,0.4482504613004213,1.3055191246538318
3.116767,0.8498548219771529,0.0002714115152203898,0.4453265504411389,1.2954527839335122
3.119068,0.8415155352862345,0.0002724641211506816,0.44256688180017706,1.2843548812075622
3.12137,0.8344688186025699,0.0002735167270809734,0.4406733537330337,1.2754156890626849
3.123672,0.8262281383421187,0.00027356058566140224,0.4384428545492752,1.2649445534770554
3.125973,0.817876222256165,0.0002717623838638204,0.4349812875528156,1.2531292721928444
3.128275,0.8094985616341783,0.0002703150507096691,0.4330902555680175,1.2428591322529057
3.130576,0.8006813009157749,0.00026863380512656405,0.4301373901535296,1.2310873248744312
3.132878,0.7923969035186633,0.00026695255954345897,0.427295350795173,1.2199592068733798
3.13518,0.7834975517325312,0.0002654175092284501,0.42446079968385225,1.2082237689256121
3.137481,0.7754594275386055,0.0002636777855381066,0.4216352344689746,1.1973583397931182
3.139783,0.7660092398305547,0.0002619673009013824,0.418902024300873,1.185173231432329
3.142085,0.7587439374635891,0.0002605345872740407,0.4156531235202327,1.1746575955710958
3.144386,0.7477719076537996,0.0002588679612177453,0.4120382970677717,1.1600690726827891
3.146688,0.7403555382923749,0.00025734753042954594,0.4093265532078396,1.149939439030644
3.148989,0.7303593721220342,0.0002556224262660121,0.4067431079804559,1.1373581025287558
3.151291,0.7209198708251671,0.0002539119416292879,0.4027259130539328,1.123899695820729
3.153593,0.7109912233436683,0.00025250846705556537,0.4001514537229921,1.111395185533716
3.155894,0.702503784134068,0.0002508564605260796,0.3963718858357414,1.0991265264303354
3.158196,0.6927470907234328,0.0002492044539965938,0.3935438245385184,1.0865401197159477
3.160498,0.6826081152400021,0.0002476547841547752,0.3899849103305921,1.072840680354749
3.162799,0.6737053632321297,0.00024594429951805093,0.3867684586204408,1.0607197661520886
3.165101,0.6640599056469967,0.000244263053934946,0.3836608361005444,1.047965004801476
3.167402,0.6536314255696826,0.00024297653557570038,0.3794174961135372,1.0332918982187955
3.1697040000000003,0.6444998872132885,0.00024170463674326445,0.3762799206054973,1.021021512455529
3.172006,0.6346654744485908,0.00024069588939340137,0.37276943039506977,1.0076756007330538
3.174307,0.6241641324768431,0.00023971638109715758,0.3687362605415368,0.9931401093994772
3.176609,0.6139556953207188,0.00023872225327410416,0.3655867038382393,0.9797811214122324
3.1789110000000003,0.6046818333971976,0.00023772812545105082,0.3620227974656224,0.9669423589882712
3.181212,0.5955818685283915,0.00023674861715480697,0.3584484075471553,0.9542670246927016
3.183514,0.5851072425846028,0.0002357837283853728,0.3544431938158896,0.9397862201288778
3.1858150000000003,0.5753238331460084,0.00023512584967894044,0.35051635707026635,0.9260753160659536
3.188117,0.5662909012200814,0.00023413172185588702,0.3471466459041136,0.9136716788460508
3.190419,0.5560625484794786,0.0002331375940328336,0.3424110784786137,0.8987067645521252
3.19272,0.5459289162016397,0.00023214346620978018,0.33856811009979243,0.884729169767642
3.1950220000000003,0.5364146100264873,0.0002311493383867268,0.3350980564233587,0.8717438157882327
3.197323,0.5267273782885454,0.00023015521056367333,0.3315296571025203,0.8584871906016294
3.199625,0.5171275808239241,0.00022916108274062002,0.3269827935023249,0.8443395354089895
3.201927,0.5072781099343766,0.0002288102140971893,0.32255424420529666,0.8300611643537704
3.204228,0.497768661218853,0.00023025754725134059,0.3181531518140667,0.8161520705801709
3.20653,0.4881970370200793,0.00023180721709315912,0.3142048487602738,0.8026336929974462
3.208832,0.4780289167788751,0.00023309373545240473,0.3100393865424401,0.7883013970567676
3.211133,0.4686763640093655,0.00023473112245508092,0.3055025072716259,0.7744136024034465
3.213435,0.459403959323733,0.00023600302128751695,0.30089673612808143,0.7605366984731019
3.215736,0.44944470984657203,0.00023730415917357206,0.2967377637243454,0.7464197777300909
3.218038,0.4403452307237287,0.0002388392094885811,0.2916237902152982,0.7322078601485156
3.22034,0.4312112636375201,0.0002401842059550651,0.2873569870542453,0.7188084348977205
3.222641,0.4213846228082285,0.00024142686573388184,0.28270329112967113,0.7043293408036335
3.224943,0.41228174346364505,0.00024312273084379647,0.2773961208470979,0.6899209870415868
3.227245,0.4031400044420302,0.00024436539062261316,0.27270098995559183,0.6760853597882446
3.229546,0.3942761121111892,0.00024569576756228764,0.2675555658089939,0.6620773736877454
3.231848,0.38488227093483374,0.00024723081787729657,0.26296976332421185,0.6480992650769228
3.234149,0.37652792611906577,0.0002485027167097325,0.2580215296828925,0.6347979585186679
3.236451,0.3674182463310018,0.0002500816256051703,0.25296296920191097,0.620631297158518
3.238753,0.35874428067165137,0.000251368143964416,0.24772818530735136,0.6067238341229672
3.241054,0.35038847861799466,0.0002526108037432326,0.2424484719305764,0.5930895613523143
3.2433560000000003,0.3419481567667949,0.0002546136789161491,0.237834214107058,0.5800369845527691
3.245658,0.33401641093874235,0.0002566457931426848,0.2324641425493832,0.5667371992812682
3.247959,0.32524189586507346,0.000258619429261982,0.2270546328906527,0.5525551481849882
3.250261,0.3175209637849157,0.00026073926064937525,0.2217040307752713,0.5394857338208364
3.252562,0.310001616279358,0.00026262517960781473,0.2166694326848046,0.5269336741437703
3.254864,0.30294761340625004,0.0002648181086292561,0.21217049386563894,0.5153829253805182
3.257166,0.2948550856644805,0.0002667186471145052,0.20702506971904105,0.5021468740306361
3.259467,0.288304315608928,0.00026856070749251595,0.2019046063958961,0.4904774827123166
3.261769,0.2808699736468762,0.000270841353674815,0.1968445482655074,0.4779853632660585
3.264071,0.27433669044598785,0.00027268341405282574,0.19192377152998635,0.466533145390027
3.266372,0.2680083920414396,0.0002745839525380749,0.18682727059735627,0.4551102465913339
3.2686740000000003,0.2617160388381453,0.00027673302297908736,0.1821870535174467,0.4441798253785712
3.270975,0.2553896834174487,0.00027857508335709817,0.17741005112501482,0.4330783096258206
3.273277,0.2495374160565339,0.0002808118709589683,0.17254368898462127,0.4223619169121141
3.275579,0.2441922674808777,0.00028259545322974064,0.1677861560344827,0.4122610189685901
3.27788,0.2388145739257078,0.0002824200189080253,0.1634015377867317,0.4024985317313475
3.280182,0.23347671153949495,0.00028202529168416585,0.15879526742671826,0.3925540042578974
3.282484,0.22861682318076726,0.00028177675972840244,0.15428135211348076,0.3831799520539764
3.284785,0.22364229877479716,0.00028144051061178147,0.14996712338786722,0.3738908626732761
3.287087,0.2190204259378861,0.00028082649048577794,0.14591997547320054,0.3652212279015724
3.289388,0.2146788285215634,0.00028059257805682417,0.14152886741135176,0.35648828851097203
3.29169,0.2106971688637432,0.0002803586656278704,0.1377972243051308,0.34877475183450185
3.293992,0.20649692352262186,0.0002797446455018668,0.13381098079968942,0.34058764896781313
3.296293,0.2028514000711224,0.00027943763543886505,0.130016935634836,0.3331477733413972
3.298595,0.1995114108302816,0.000279101386322244,0.12633521417552102,0.3261257263921249
3.300897,0.1966217080970411,0.00027875051767881336,0.12273835951594615,0.3196388181306661
3.3031980000000005,0.1936027969376715,0.0002782388342404771,0.11926930427245057,0.3131503400443625
3.3055,0.19160103782459634,0.0002780195413383329,0.11623806187232033,0.30811711923825497
3.307801,0.18999370443338887,0.0002777417703289504,0.11280045726637553,0.3030719034700934
3.310103,0.1887798252721235,0.0002770985111493276,0.10984859028482574,0.29890551406809857
3.3124050000000005,0.1877825888103076,0.0002768938377739931,0.1070634616039419,0.29512294425202346
3.314706,0.18726429786790252,0.0002763967738624664,0.10490684645760416,0.2924475410993692
3.317008,0.18696022089513256,0.0002760459052190358,0.10251310348846307,0.2897493702888147
3.31931,0.18579005887052732,0.0002757242756292244,0.100880665634638,0.28694644878079456
3.321611,0.18354834125178388,0.000275402646039413,0.09954725844577964,0.28337100234360296
3.323913,0.18038710652528708,0.0002748178649670286,0.0985513215900056,0.2792132459802597
3.326214,0.17778545114804115,0.0002746131915916941,0.0983671107129226,0.27642717505255543
3.3285160000000005,0.1736580677013535,0.00027436465963593065,0.09841603392689044,0.2723484662878799
3.330818,0.1685499631555883,0.000273721400456308,0.09969003435593073,0.2685137189119753
3.3331190000000004,0.16312272351220344,0.000273458248973735,0.10097302068141403,0.2643692024425912
3.335421,0.15839544380134504,0.0002732535755984005,0.10229694275736026,0.2609656401343037
3.3377230000000004,0.15367593602589288,0.00027268341405282574,0.10359989774160597,0.25754851718155164
3.340024,0.15020916708873747,0.00027236178446301434,0.10487439738711528,0.2553559262603158
3.3423260000000004,0.14717859802625846,0.00027204015487320294,0.10550390935459952,0.2529545475357312
3.344627,0.14429083827686948,0.0002716746667029627,0.1055767949590822,0.25013930790265465
3.3469290000000003,0.1413209874597519,0.00027122146137186485,0.10490934253994944,0.2465015514610732
3.349231,0.138996207281354,0.0002710021684697207,0.10311865306543246,0.24238586251525615
3.351532,0.13750788165105496,0.0002706805388799093,0.10093557944623456,0.23871414163616944
3.3538339999999995,0.1361657655555862,0.0002701103773343345,0.09862071267920493,0.2350565886121255
3.356135,0.1348775672619984,0.0002699349430126192,0.0964156735353684,0.2315631757403794
3.3584370000000003,0.13382447001445,0.0002693355424134253,0.0949454810339877,0.22903928659085115
