Wavelength,H2O_NH3_CO2_CH4_10_1_1_1_72K_b,H2O_CH4_10_0.6_a_V3,H2O_CH3OH_CO_NH3_100K_NASA,all
2.85208,0.15673329903832098,0.01898825483665173,0.0722800276049854,0.2480015814799581
2.854382,0.1656617078469128,0.019776494833074868,0.07728104853494623,0.2627192512149339
2.8566830000000003,0.1737937561171846,0.0205880107142644,0.08240682484854579,0.2767885916799948
2.858985,0.18349279113412725,0.021398820076186157,0.08745548858249462,0.29234709979280804
2.861286,0.1920506255911624,0.022263167898177682,0.09330867719203527,0.3076224706813754
2.863588,0.2014895099269617,0.023167473309869367,0.09819967762618866,0.3228566608630198
2.8658900000000003,0.211151113191222,0.024021380347125882,0.1030602259588239,0.33823271949717176
2.868191,0.22136811008590865,0.024946017813301545,0.10792126545438688,0.35423539335359705
2.870493,0.231603354960028,0.025881724081339142,0.11303083339137195,0.3705159124327391
2.872795,0.24198037259743235,0.02680471300255665,0.11730640667710256,0.3860914922770915
2.875096,0.2527312398647531,0.027734688614311127,0.12222147409471378,0.40268740257377794
2.877398,0.2633501602038681,0.028694809048157664,0.12652799064489026,0.418572959896916
2.879699,0.27499096739121515,0.029649473583214105,0.13096024490456082,0.4356006858789901
2.882001,0.2863603943716141,0.03059593464455017,0.13519112236386965,0.4521474513800338
2.884303,0.29807559716741755,0.03147735668217978,0.13914891323537076,0.4687018670849681
2.886604,0.3094253724776582,0.03249855178161912,0.14325945577739016,0.4851833800366675
2.888906,0.3215579393158715,0.033499297073363174,0.14751882068650626,0.5025760570757409
2.891208,0.33414389825845153,0.03443610237137289,0.1514284775910916,0.520008478220916
2.893509,0.3452391376504512,0.035372436656537394,0.15527723029264073,0.5358888045996293
2.895811,0.35791633649019483,0.03631022323130791,0.1591431736966597,0.5533697334181624
2.898112,0.3705032312265919,0.03726995115445013,0.16373456474490894,0.5715077471259511
2.900414,0.3828103236116873,0.03816621009670318,0.16763096025044605,0.5886074939588366
2.902716,0.3949293214395532,0.03911259265589839,0.1722140015289242,0.6062559156243759
2.905017,0.4077632657436547,0.03998471218983552,0.17626069289034108,0.6240086708238313
2.907319,0.4196071401893043,0.04091241123950492,0.1806094494523007,0.6411290008811099
2.909621,0.4324148822665281,0.04169966995916724,0.18500044602604354,0.6591149982517388
2.911922,0.4451982937045082,0.04240634623123188,0.18971020733987126,0.6773148472756114
2.9142240000000004,0.4580167974106282,0.04340469720767955,0.1945186924021691,0.6959401870204769
2.916525,0.4714028600667966,0.04419701931542765,0.19974319246423874,0.7153430718464631
2.918827,0.4847468120011971,0.04501905448349308,0.20477319200693453,0.7345390584916247
2.921129,0.4983808600188869,0.04581824552856685,0.20964454592397944,0.7538436514714333
2.92343,0.5141864175890699,0.046562210317542235,0.2147344673438561,0.7754830952504683
2.925732,0.5283856850722655,0.047324897867113885,0.22018392002681766,0.795894502966197
2.928034,0.544365300292422,0.04801972031590795,0.22602237374852696,0.8184073943568569
2.930335,0.5581874428673413,0.048660494040716616,0.23056022803765566,0.8374081649457136
2.932637,0.5708000719337076,0.04943801849491171,0.23763886815183705,0.8578769585804563
2.9349380000000003,0.5828460778438427,0.050050609951149926,0.243263174837064,0.8761598626320566
2.93724,0.5944672333610315,0.05068969587992999,0.2489970108551707,0.8941539400961321
2.939542,0.6044652545025255,0.051306644204986214,0.25506680231583223,0.9108387010233441
2.941843,0.6132022934755281,0.0516746229902898,0.2611508375013974,0.9260277539672152
2.944145,0.6237875252372288,0.05236712962592835,0.2669337898122752,0.9430884446754324
2.946447,0.6327828433037406,0.053079340298923965,0.2725689020819119,0.9584310856845764
2.948748,0.6423241970625083,0.05332297169309777,0.2787993038199351,0.9744464725755412
2.95105,0.6520307184299875,0.0540270966455843,0.28459993799621064,0.9906577530717824
2.953351,0.659430508038408,0.05453814558261394,0.29032247726697996,1.004291130888002
2.955653,0.6683982201873163,0.055076984277509705,0.2942507983628184,1.0177260028276445
2.957955,0.6740059646360625,0.05544566958208108,0.300819611358035,1.0302712455761789
2.960256,0.6791851155165941,0.0559851755451742,0.3059861541946346,1.0411564452564028
2.962558,0.6862297713714394,0.05630750533556494,0.3095878519435447,1.052125128650549
2.96486,0.6903280803932639,0.056792138302193575,0.3160422239766045,1.0631624426720618
2.967161,0.6954819648407348,0.057141119569407914,0.3214509101365661,1.0740739945467088
2.969463,0.6990192654692304,0.05740641755446039,0.32630065288479165,1.0827263359084824
2.971764,0.7057672746840671,0.057868795164153865,0.33149322735656,1.0951292972047808
2.974066,0.7108846631726725,0.0583111154768564,0.3367525999864972,1.1059483786360262
2.976368,0.7164240946727729,0.05865746692235176,0.34092257324276976,1.1160041348378944
2.978669,0.7212841398616864,0.059053549474084935,0.345340092614609,1.1256777819503805
2.980971,0.7279273401690121,0.05946552870934324,0.3507669518028959,1.138159820681251
2.983273,0.7354005895920718,0.05977741771499896,0.3551682627981207,1.1503462701051914
2.985574,0.7386651063228937,0.059937483580222224,0.3601201674353103,1.1587227573384262
2.987876,0.7467648697064769,0.06043550116186831,0.36481273804666814,1.1720131089150134
2.990177,0.7548608899147917,0.06085007096777515,0.36946896260137535,1.1851799234839422
2.992479,0.7595829055156883,0.06107643189095871,0.3739925731656003,1.1946519105722473
2.994781,0.7667988116390562,0.06142949526949801,0.3786021372421749,1.2068304441507292
2.997082,0.7745906988568257,0.06169043638573249,0.3832102278299663,1.2194913630725246
2.999384,0.7799130261913677,0.062029330127845686,0.3868340279106233,1.228776384229837
3.001686,0.7871537308508877,0.062401273271262964,0.3918203139527529,1.2413753180749034
3.003987,0.7945759795109176,0.06266272465141308,0.3969033590916416,1.2541420632539722
3.006289,0.8009258084565942,0.06288508196541252,0.4007467090009858,1.2645575994229925
3.0085900000000003,0.8080799521880359,0.06320305488698526,0.4050379995004032,1.2763210065754245
3.010892,0.8157586083539409,0.06348475981947849,0.4089417624498559,1.2881851306232754
3.013194,0.8226263991773616,0.06368957190499466,0.4130655663909236,1.29938153747328
3.015495,0.8313044831398892,0.06399058836414061,0.4171088196118466,1.3124038911158764
3.0177970000000003,0.8383683227679842,0.0642115326396045,0.4204693563632502,1.323049211770839
3.020098,0.8456249359223942,0.06442490145847493,0.4243912923410284,1.3344411297218974
3.0224,0.8530546709329607,0.06451400138835646,0.4274124355093831,1.3449811078307004
3.024702,0.8580354335242751,0.06451596394187807,0.4304782745041597,1.353029671970313
3.027003,0.861612505389996,0.06459894070477212,0.4340868485340578,1.3602982946288258
3.029305,0.8693098774322422,0.06496256262125773,0.4364920733910621,1.3707645134445618
3.031607,0.8759811515540796,0.06509943110385545,0.4397165580114896,1.3807971406694246
3.0339080000000003,0.8795455902032701,0.0651376616464566,0.4427755207252783,1.387458772575005
3.03621,0.88426339473199,0.06517020078384503,0.4448010766391614,1.3942346721549963
3.038511,0.8890555948691661,0.06508117935610441,0.447154729388756,1.4012915036140263
3.040813,0.8941598822443326,0.06520521273867072,0.4499312734191104,1.4092963684021138
3.043115,0.8971427250362188,0.06516937651136596,0.4518669465172224,1.4141790480648067
3.045416,0.9025357048039492,0.06505232981933659,0.4538281600875753,1.4214161947108608
3.047718,0.9049327406663544,0.06495353487505827,0.4547225677789383,1.424608843320351
3.05002,0.9080793473762266,0.06483617417446545,0.4569529386336772,1.4298684601843692
3.052321,0.9106691567649464,0.06469467406555672,0.4578920421514621,1.433255872981965
3.054623,0.9142682197853684,0.06451933953393525,0.4595782044822964,1.4383657638016
3.056924,0.9138840764234644,0.06411909636873624,0.4596769282307665,1.4376801010229672
3.059226,0.9166956689468282,0.06399176589625359,0.4607029675867563,1.4413904024298383
3.061528,0.9184577687043566,0.06378773883214604,0.4620197753959514,1.444265282932454
3.063829,0.9176422243927868,0.06344217240805934,0.4626740044156634,1.4437584012165097
3.066131,0.9198305782339872,0.06323339596442949,0.4630227300943388,1.4460867042927552
3.068433,0.9184587044981736,0.06281109369764748,0.4632083896810138,1.444478187876835
3.070734,0.9173853489900029,0.06246344696682786,0.4632221422429896,1.4430709381998206
3.073036,0.9163779669459354,0.062078786476590486,0.463223124568845,1.4416798779913709
3.075337,0.9148371824261424,0.061712259980892886,0.463223124568845,1.4397725669758803
3.077639,0.9128186751627388,0.061321633327949814,0.4629662463576519,1.4371065548483406
3.079941,0.9080377045513672,0.06077447340612236,0.4619087725742885,1.4307209505317782
3.082242,0.906547920794604,0.06038408225960189,0.4619451186309392,1.4288771216851448
3.084544,0.901970953235352,0.059921194385992776,0.4613621082357454,1.4232542558570902
3.086846,0.8980691609151107,0.059481582397150075,0.4605119052078765,1.418062648520137
3.089147,0.8952360451339543,0.05896374302493565,0.4594372407220431,1.4136370288809332
3.0914490000000003,0.8897335774896279,0.05846462641331746,0.4578434170216186,1.406041620924564
3.09375,0.8810980721457765,0.057783816596667766,0.4569239600209422,1.3958058487633864
3.096052,0.8796185821210011,0.057354920150053085,0.4551066571884088,1.3920801594594627
3.098354,0.8727802688028178,0.05682491294600463,0.454022660606949,1.3836278423557715
3.100655,0.8676254485615299,0.05624807921493031,0.4520756907614998,1.37594921853796
3.102957,0.8606987027276345,0.055669204428193515,0.4508030876157987,1.3671709947716266
3.105259,0.8545388399268216,0.05504106954806407,0.4485294944234211,1.3581094038983068
3.10756,0.8470099107716466,0.054432285445657785,0.4464282994186703,1.3478704956359746
3.109862,0.8404579503614845,0.05379920493065389,0.4446831975365106,1.3389403528286492
3.112163,0.8335017270223516,0.05314991372356138,0.44299850869445934,1.3296501494403723
3.114465,0.8255072404431879,0.052501407537877534,0.4410191220957812,1.319027770076847
3.116767,0.8186263485063285,0.05182990022492032,0.4381423808281735,1.3085986295594223
3.119068,0.8105934943806653,0.05112915086449097,0.4354272321637831,1.2971498774089394
3.12137,0.8038057139286036,0.05046337420781687,0.4335642511789725,1.2878333393153931
3.123672,0.7958678428753724,0.04975379335654024,0.4313697352179566,1.2769913714498693
3.125973,0.7878228234300872,0.049028198068527186,0.4279640114772035,1.264815032975818
3.128275,0.7797530054486501,0.04831351457809435,0.4261034863070314,1.2541700063337757
3.130576,0.7712597407649924,0.04758583898334838,0.4231982575896165,1.2420438373379572
3.132878,0.7632797589899932,0.04683480900169515,0.4204020670421537,1.230516635033842
3.13518,0.7547074197287935,0.0460873901185217,0.4176132439386065,1.2184080537859217
3.137481,0.7469646616864197,0.045329726705965384,0.4148332617677581,1.2071276501601431
3.139783,0.7378617273309458,0.044606721988600884,0.4121441447385365,1.194612594058083
3.142085,0.7308633932700451,0.043845565230776096,0.4089476564049885,1.1836566149058096
3.144386,0.7202945379001428,0.04305693272364864,0.4053911456454279,1.1687426162692192
3.146688,0.7131506879006889,0.04230060384748703,0.40272314862209774,1.1581744403702736
3.148989,0.7035218374200258,0.04158713714023759,0.4001813804711896,1.1452903550314528
3.151291,0.6944291967965397,0.040761726380115,0.3962289923918933,1.1314199155685478
3.153593,0.6848653839861625,0.04001929238288645,0.393696065173684,1.118580741542733
3.155894,0.6766898213033973,0.039254171266947996,0.3899774706479785,1.1059214632183236
3.158196,0.6672916439986402,0.0384767645659642,0.3871950326624916,1.092963441227096
3.160498,0.6575252318268691,0.03770807160261639,0.3836935321508346,1.0789268355803199
3.162799,0.6489496172873096,0.03696041721302035,0.380528969407588,1.0664390039079181
3.165101,0.6396585883746062,0.03615329745171924,0.3774714801825825,1.053283366008908
3.167402,0.6296133096453504,0.03542958621508695,0.3732965952970328,1.0383394911574702
3.1697040000000003,0.6208173156618729,0.034659283957851415,0.3702096362963646,1.0256862359160892
3.172006,0.6113442748517509,0.03380631894628528,0.3667557785886958,1.011906372386732
3.174307,0.6012288115862154,0.033088102859513524,0.3627876732957127,0.9971045877414416
3.176609,0.5913954901565243,0.03236870924062879,0.3596889263847794,0.9834531257819324
3.1789110000000003,0.5824624023788472,0.031623566919540415,0.3561825142438454,0.9702684835422328
3.181212,0.5736968216944242,0.03084863303599386,0.3526657876814295,0.9572112424118476
3.183514,0.5636070927588579,0.030126805850742323,0.3487251875123982,0.9424590861219986
3.1858150000000003,0.5541831811241316,0.02936423605438197,0.3448616999230178,0.9284091171015314
3.188117,0.545482170213086,0.028643547150172977,0.34154635016096363,0.9156720675242224
3.190419,0.535629665010145,0.027894440470970925,0.3368871786286902,0.9004112841098061
3.19272,0.5258683997043677,0.027193926616964167,0.3331062064111653,0.8861685327324973
3.1950220000000003,0.5167037029569677,0.026439560294324184,0.3296921329006411,0.8728353961519328
3.197323,0.5073724349101305,0.02575152828071493,0.3261813002933577,0.8593052634842031
3.199625,0.4981253883068289,0.025067264369867184,0.3217077883477593,0.8449004410244554
3.201927,0.4886378426925424,0.024360745102084275,0.3173506820160286,0.8303492698106554
3.204228,0.4794778249142275,0.02363723012080414,0.31302058964532203,0.8161356446803536
3.20653,0.4702579163316207,0.022975888835088904,0.30913598205004994,0.8023697872167596
3.208832,0.4604634303453377,0.022251431828118395,0.3050377185812233,0.7877525807546795
3.211133,0.4514545432684786,0.021631107911005004,0.30057402989417914,0.7736596810736627
3.213435,0.4425228591815271,0.020989235156224237,0.29604256072311075,0.7595546550608621
3.215736,0.4329295688659124,0.02034626337147135,0.29195068237234434,0.7452265146097281
3.218038,0.4241644560783979,0.01970462612311317,0.2869192093408654,0.7307882915423766
3.22034,0.4153661226103777,0.019104359502990727,0.2827212397977133,0.7171917219110817
3.222641,0.4059005681507922,0.01848760743328668,0.27814261898558457,0.7025307945696635
3.224943,0.397132180084918,0.01787085536358263,0.27292106590108123,0.6879241013495818
3.227245,0.3883263602663613,0.01726858693886814,0.26830167856595244,0.6738966257711818
3.229546,0.3797881774794845,0.01669516805092144,0.2632392622700277,0.6597226078004336
3.231848,0.3707395191654001,0.0161235154611442,0.2587274396160677,0.6455904742426121
3.234149,0.3626921602355725,0.015557318770157062,0.2538590326765891,0.6321085116823186
3.236451,0.35391722161297884,0.014994890181931437,0.2488820787300861,0.6177941905249964
3.238753,0.34556198651733777,0.01448026939749245,0.243731744270101,0.6037740001849312
3.241054,0.3375132238967845,0.013960585224967688,0.2385372051466217,0.5900110142683739
3.2433560000000003,0.3293830472141468,0.013433482600131205,0.23399738620578225,0.5768139160200603
3.245658,0.3217427585947413,0.012940175146937006,0.22871394659238725,0.5633968803340655
3.247959,0.3132906688390343,0.012462018606929704,0.22339170510770293,0.5491443925536671
3.250261,0.30585344747793125,0.011996736418024229,0.21812742084848868,0.5359776047444442
3.252562,0.2986104033338687,0.011570234286705946,0.2131740427225159,0.5233546803430905
3.254864,0.29181560442817894,0.011147343253867441,0.2087476824179778,0.5117106301000243
3.257166,0.2840204419320497,0.010746001058696318,0.20368526612205307,0.4984517091127991
3.259467,0.2777103842235983,0.010307919861600479,0.19864740797251387,0.4866657120577126
3.261769,0.27054922203852866,0.009921257566771069,0.19366898053722784,0.4741394601425276
3.264071,0.2642560086187844,0.009558891684539302,0.18882758755877332,0.462642487862097
3.266372,0.2581602476944403,0.009207908612732924,0.1838133052297643,0.4511814615369375
3.2686740000000003,0.2520991111413275,0.008858809592307303,0.17924794581668382,0.44020586655031857
3.270975,0.2460052218046175,0.008536244295493973,0.1745480077614103,0.42908947386152174
3.273277,0.2403679998506339,0.008203434469297789,0.1697601515420764,0.41833158586200814
3.275579,0.2352192622691569,0.007922200549649759,0.16507936884098362,0.4082208316597903
3.27788,0.2300391755948083,0.007620242064813431,0.16076548484689154,0.3984249025065133
3.280182,0.22489745646695927,0.007355846854380893,0.15623352451289546,0.3884868278342356
3.282484,0.2202161478971049,0.007107034318910013,0.15179242932052595,0.3791156115365409
3.284785,0.21542441565683715,0.006856847995973998,0.14754779929924128,0.3698290629520524
3.287087,0.21097237657216306,0.0066381410315247535,0.14356594144428228,0.36117645904796997
3.289388,0.2067903140037114,0.0064270095236689615,0.13924567233212992,0.35246299585951024
3.29169,0.2029549630444814,0.006244492046158377,0.1355742294474848,0.34477368453812457
3.293992,0.19890905847641235,0.006071473327692429,0.13165229346970664,0.33663282527381144
3.296293,0.19539749217788588,0.005921887498274614,0.12791945521909753,0.329238834895258
3.298595,0.19218023303482554,0.00580904067078151,0.12429712862722353,0.32228640233283057
3.300897,0.1893967143259736,0.005716957659547138,0.12075829973306056,0.3158719717185813
3.3031980000000005,0.18648873503945235,0.005683515747538747,0.11734520854839176,0.3095174593353829
3.3055,0.1845605318793954,0.005696625605063163,0.11436286725132615,0.3046200247357847
3.307801,0.18301226100906573,0.005771791404941179,0.11098071933110322,0.2997647717451101
3.310103,0.18184298663464635,0.005955800423128193,0.10807647293954377,0.2958752599973183
3.3124050000000005,0.18088239428143185,0.006277737702814607,0.10533627496584004,0.2924964069500865
3.314706,0.18038314828002908,0.006785293294575761,0.10321445111812537,0.2903828926927302
3.317008,0.18009024481528854,0.007407854522703801,0.10085932487974764,0.28835742421774
3.31931,0.17896308116263698,0.008045056400103119,0.09925322210613033,0.2862613596688704
3.321611,0.1768037369297656,0.008550767191553954,0.09794132592621227,0.28329583004753184
3.323913,0.17375866384904476,0.008796792901024135,0.0969614558854274,0.2795169126354963
3.326214,0.1712526080069518,0.008535302269803594,0.09678021676510176,0.2765681270418572
3.3285160000000005,0.1672768879751624,0.007796008358209645,0.09682835073201752,0.2719012470653896
3.330818,0.16235648408504866,0.006713385333543634,0.09808179852353784,0.2671516679421301
3.3331190000000004,0.1571286719260298,0.00556073839922625,0.09934408724775698,0.26203349757301303
3.335421,0.15257509921220444,0.0046168679085387175,0.10064665133204848,0.2578386184527917
3.3377230000000004,0.1480290128489156,0.003993403905790731,0.10192858657337607,0.2539510033280824
3.340024,0.1446896326127286,0.003625071860853241,0.10318252552782413,0.25149723000140595
3.3423260000000004,0.14177042380040258,0.0033735117504520933,0.1038018819796686,0.2489458175305233
3.344627,0.13898877667918474,0.003223768916752549,0.10387359176711453,0.24608613736305185
3.3469290000000003,0.1361280549804252,0.003099657032045352,0.10321690693276396,0.2424446189452345
3.349231,0.13388870037619502,0.002993522137596185,0.101455105511062,0.2383373280248532
3.351532,0.1324550642484555,0.002920554397662384,0.0993072500281786,0.2346828686742965
3.3538339999999995,0.13116226509018386,0.0028496277133910662,0.09702972753237933,0.2310416203359543
3.356135,0.1299214024887592,0.002799033083603724,0.09486026088067663,0.2275806964530395
3.3584370000000003,0.1289070019910636,0.002730068952854025,0.0934137860585656,0.22505085700248326
3.360739,0.12713554429536458,0.0026746071903330673,0.09285140450633568,0.22266155599203333
3.3630400000000003,0.12520172637240526,0.002625857360856046,0.09331162416960154,0.22113920790286284
3.365342,0.12297406919088835,0.002583583958000369,0.09463432593392923,0.220191979082818
3.3676440000000003,0.12179590477520685,0.002526002637676061,0.09645752272159516,0.22077943013447807
3.3699449999999995,0.11999684116190447,0.002486005796905463,0.09840007210069504,0.22088291905950502
