Wavelength,H2O_NH3_CO2_CH4_10_1_1_1_72K_b,H2O_40K,HNCO_NH3,all
2.85208,0.16235424737130502,0.1066449697942239,0.0003416973985944284,0.2693409145641233
2.854382,0.17160285695992755,0.11068620796369956,0.0003562377134282338,0.2826453026370553
2.8566830000000003,0.18002654602031218,0.11522811764061927,0.0003707780282620393,0.2956254416891935
2.858985,0.1900734188933106,0.11946128796590118,0.0003853183430958448,0.3099200252023077
2.861286,0.1989381641703207,0.12393776622606875,0.0003998586579296502,0.3232757890543191
2.863588,0.2087155565417326,0.12855334683147973,0.0004143989727634557,0.3376833023459758
2.8658900000000003,0.21872365524184093,0.13353098127625246,0.00042893928759726114,0.35268357580569065
2.868191,0.2293070657322068,0.13821053926693214,0.0004434796024310666,0.36796108460157
2.870493,0.23990937863185655,0.14282030374640964,0.00045801991726487196,0.3831877022955311
2.872795,0.2506585487113279,0.14778485190783194,0.00047256023209867753,0.3989159608512585
2.875096,0.2617949758425395,0.15292097578429314,0.000487100546932483,0.4152030521737651
2.877398,0.2727947240143133,0.15798488276374648,0.0005016408617662882,0.4312812476398261
2.879699,0.2848530071059881,0.16323732915887815,0.0005161811766000938,0.4486065174414664
2.882001,0.29663017744420944,0.1685043158688436,0.0005302368142727725,0.4656647301273258
2.884303,0.3087655242045035,0.17356822284829693,0.0005447771291065781,0.482878524181907
2.886604,0.32052233810195746,0.17873245800010348,0.0005588327667792565,0.4998136288688402
2.888906,0.33309001688997664,0.1837488666177664,0.0005733730816130621,0.5174122565893561
2.891208,0.3461273478471277,0.18878466232187435,0.0005874287192857406,0.5354994388882879
2.893509,0.3576204973689287,0.1939498668280032,0.0006019690341195461,0.5521723332310514
2.895811,0.3707523403724995,0.1990985923106537,0.0006160246717922247,0.5704669573549455
2.898112,0.3837906406839729,0.20468304256115724,0.0006305649866260302,0.5891042482317562
2.900414,0.3965391040530925,0.209702843918948,0.0006446206242987088,0.6068865685963392
2.902716,0.4090927272034389,0.2143043688866863,0.0006586762619713874,0.6240557723520965
2.905017,0.4223869370559872,0.2191312687343486,0.000672731899644066,0.6421909376899799
2.907319,0.4346555700355912,0.2239746476054892,0.0006872722144778715,0.6593174898555583
2.909621,0.4479226379671164,0.228421560558828,0.0007042359151173111,0.6770484344410617
2.911922,0.461164502686263,0.2335349046087163,0.0007842076467032412,0.6954836149416825
2.9142240000000004,0.4744427181924942,0.2379629151527712,0.0008714495357060742,0.7132770828809714
2.916525,0.4883088470951722,0.2424248530981049,0.0009586914247089068,0.7316923916179859
2.918827,0.5021313550533488,0.2469265345706511,0.0010454486365506126,0.7501033382605505
2.921129,0.516254362851424,0.2512294984071352,0.001130751816908938,0.7686146130754682
2.92343,0.5326267573542889,0.2552101519314701,0.001217024351589517,0.7890539336373484
2.925732,0.5473352551630055,0.2589494362295637,0.0013076589807202376,0.8075923503732895
2.928034,0.5638879495698096,0.26332413228589463,0.0013949008697230706,0.8286069827254273
2.930335,0.5782057975866578,0.26596513813687483,0.0014763266327923812,0.8456472623563249
2.932637,0.5912707551419931,0.2704745744439991,0.0016037967261687425,0.863349126312161
2.9349380000000003,0.6037487686552039,0.2745463472746257,0.0018645530388549866,0.8801596689686846
2.93724,0.6157866953061115,0.2782560662658906,0.0021083456509017923,0.8961511072229039
2.939542,0.6261432768850699,0.2817976022822445,0.002362801160493388,0.9103036803278076
2.941843,0.6351936535147916,0.2852892165510024,0.002616771992923857,0.923099642058718
2.944145,0.6461585049309643,0.2883412286346181,0.0028702581481931983,0.9373699917137756
2.946447,0.6554764233536279,0.2916947099124547,0.003113566083078876,0.9502846993491616
2.948748,0.6653599600233266,0.2950569153791917,0.0033772304587318825,0.9637941058612502
2.95105,0.6754145877309031,0.2982795338235241,0.0038599689112142244,0.9775540904656416
2.953351,0.6830797570341243,0.3014604700319996,0.004365971867430653,0.9889061989335546
2.955653,0.6923690795042814,0.30265810729714404,0.004787156320449885,0.9998143431218752
2.957955,0.6981779352803867,0.3069315058267995,0.0050624529479699355,1.0101718940551565
2.960256,0.7035428267768998,0.3102413661601347,0.005353259244646046,1.0191374521816807
2.962558,0.7108401261148256,0.3118117201621857,0.005299944756922091,1.0279517910339335
2.96486,0.7150854133691357,0.3156135278140647,0.005212218190758132,1.0359111593739585
2.967161,0.7204241322989479,0.3177737339212071,0.00511092066408262,1.0433087868842377
2.969463,0.7240882916370669,0.3210986192465373,0.005011561846051615,1.0501984727296558
2.971764,0.7310783056548382,0.32366740820050954,0.004923350602726529,1.0596690644580744
2.974066,0.7363792197660827,0.32629145035085033,0.0048235071075343975,1.0674941772244677
2.976368,0.7421173126766635,0.32978451865109154,0.0047241482895033935,1.0766259796172584
2.978669,0.7471516543492881,0.3319141900970829,0.004633998337533801,1.0836998427839049
2.980971,0.754033100682967,0.33489592399233525,0.004536578228147304,1.0934656029034495
2.983273,0.7617743643004851,0.3375097879222924,0.0044372194101163,1.1037213716328935
2.985574,0.7651559568536671,0.3401008720256765,0.004351431552596848,1.1096082604319404
2.987876,0.7735462031899341,0.34276174964026296,0.00425110338024359,1.1205590562104404
2.990177,0.7819325721089118,0.3453930619480205,0.004125087318350609,1.131450721375283
2.992479,0.7868239340190039,0.3480243742557782,0.00397580675272354,1.1388241150275056
2.994781,0.7942986251979023,0.3506707115555308,0.003828464895740978,1.148797801649174
2.997082,0.8023699539621476,0.35334467545346765,0.0036816077159195428,1.159396237131535
2.999384,0.8078831566699655,0.3560346336977217,0.0035347505360981087,1.1674525409037853
3.001686,0.8153835357384035,0.3587129596901086,0.0033883780334377995,1.17748487346195
3.003987,0.8230719695453587,0.3613869235880454,0.003241520853616364,1.1877004139870204
3.006289,0.8296495232990112,0.3633266015868751,0.003081092713283377,1.1960572175991695
3.0085900000000003,0.8370602370926408,0.3659414348711545,0.0030999951225673247,1.206101667086363
3.010892,0.8450142739838935,0.3685383351004721,0.003213409578271007,1.2167660186626366
3.013194,0.8521283653549133,0.3708071088917069,0.0033210079080411674,1.2262564821546615
3.015495,0.8611176726623331,0.37267699337933424,0.003429090914972455,1.2372237569566398
3.0177970000000003,0.8684348437638649,0.3747383253456068,0.003537658599064869,1.2467108277085368
3.020098,0.8759517018557813,0.3765679816288606,0.003656404503540947,1.256176087988183
3.0224,0.8836478904973146,0.3779250776800158,0.003764002833311107,1.2653369710106417
3.024702,0.8888072788775099,0.3791328931655439,0.0038711164859201405,1.271811288528974
3.027003,0.8925126357743247,0.3803218062417881,0.003977745461368047,1.276812187477481
3.029305,0.9004860597520224,0.38182672882708696,0.004084859113977081,1.2863976476930865
3.031607,0.9073965867153688,0.3833728489710816,0.004203605018453159,1.2949730407049036
3.0339080000000003,0.9110888573288332,0.3836205190004174,0.004310718671062192,1.2990200950003128
3.03621,0.9159758571444754,0.3844590104891669,0.004422194418121368,1.3048570620517637
3.038511,0.9209399206287364,0.3844459242058164,0.004581653204132101,1.3099674980386848
3.040813,0.9262272637794692,0.3852732681198599,0.004760014399426782,1.3162605462987558
3.043115,0.9293170806816528,0.3854758631732109,0.004938860271882589,1.3197318041267465
3.045416,0.9349034696408012,0.3843737073088085,0.005113344049888254,1.3243905209994982
3.047718,0.937386470737254,0.3844153895446654,0.005291220568021808,1.3270930808499408
3.05002,0.9406459246458321,0.3840766002090377,0.005457949511449444,1.3301804743663193
3.052321,0.9433286127326691,0.3825997888990842,0.005632917966616236,1.331561319598369
3.054623,0.9470567494560568,0.3819256029679568,0.005810309807588663,1.3347926622316022
3.056924,0.9466588295067716,0.3803954771702794,0.005987701648561089,1.333042008325612
3.059226,0.9495712545679829,0.3798584548757508,0.006156369300633232,1.335586078744367
3.061528,0.9513965487567866,0.3779585204041335,0.006318251472449601,1.3356733206333695
3.063829,0.9505517564649426,0.37663147433696825,0.006471409455365684,1.3336546402572766
3.066131,0.9528185915475328,0.3746980971412332,0.006620690020992754,1.334137378709759
3.068433,0.9513975181111088,0.3722548395719928,0.006762215752041794,1.3304145734351431
3.070734,0.9502856687034836,0.3707581564984331,0.006913919703474497,1.3279577449053912
3.073036,0.9492421587755776,0.3680575353566343,0.007053022048717903,1.32435271618093
3.075337,0.947646116883987,0.3654223456315876,0.007205210677311733,1.3202736731928864
3.077639,0.9455552196108858,0.36390772950306616,0.007346251731199645,1.3168092008451515
3.079941,0.9406027883784916,0.3613655977929559,0.007493593588182208,1.3094619797596296
3.082242,0.9390595762974636,0.35778141018642284,0.007637542705036883,1.3044785291889234
3.084544,0.9343184643073208,0.3552087438151615,0.007781976499052683,1.2973091846215352
3.086846,0.9302767414606842,0.35211068740123874,0.007915747395523694,1.2903031762574464
3.089147,0.9273420212500608,0.3491052043250911,0.008037401362966533,1.2844846269381185
3.0914490000000003,0.9216422178352092,0.3461990800669745,0.008154693235959229,1.275995991138143
3.09375,0.9126970161494522,0.3430598260943559,0.008282648006496718,1.264039490250305
3.096052,0.9111644669659692,0.33976111333572656,0.00840672535974519,1.259332305661441
3.098354,0.9040809102561002,0.3364619158999361,0.008522563201254508,1.2490653893572907
3.100655,0.8987412219719657,0.3325234292886194,0.008647609908825234,1.2399122611694104
3.102957,0.8915660612786438,0.3295688373143901,0.008762478396012295,1.2298973769890462
3.105259,0.8851852864524089,0.3254248475867555,0.008840026741792593,1.2194501607809571
3.10756,0.8773863462527168,0.32191626961735825,0.008874923497393727,1.2081775393674687
3.109862,0.8705994119654575,0.3173656357515383,0.00890933557583373,1.1968743832928297
3.112163,0.8633937166109846,0.3138686900340081,0.008933084756728948,1.1861954914017216
3.114465,0.8551125226359714,0.310169633940288,0.008966527480846701,1.1742486840571065
3.116767,0.8479848603044399,0.3058598846235481,0.008998031496319947,1.162842776424308
3.119068,0.8396639228022141,0.3022989615207491,0.00903292825192108,1.1509958125748845
3.12137,0.8326327112257469,0.2978147284260035,0.009067825007522212,1.1395152646592726
3.123672,0.8244101631872299,0.2934565113931508,0.009069279039005592,1.1269359536193866
3.125973,0.8160766240788149,0.28909199355720355,0.009009663748186991,1.1141782813842054
3.128275,0.8077173970808602,0.2848079321300033,0.00896168070923543,1.101487009920099
3.130576,0.7989195372520856,0.2806043271115502,0.008905942835705845,1.0884298071993417
3.132878,0.7906533682690672,0.2764995962339669,0.008850204962176256,1.0760031694652104
3.13518,0.7817735980000622,0.2715272932379665,0.008799313860257939,1.0621002050982868
3.137481,0.7737531603377351,0.2673740946442706,0.008741637278083844,1.0498688922600894
3.139783,0.7643237661680122,0.26248176337985624,0.008684930050232003,1.0354904595981005
3.142085,0.757074449869038,0.2577871803971815,0.00863743168844157,1.0234990619546611
3.144386,0.7461265621535047,0.2534410802933571,0.008582178492073109,1.0081498209389352
3.146688,0.7387265112574201,0.2484251563528553,0.008531772067315918,0.9956834396775912
3.148989,0.7287523399585906,0.24430103838882694,0.00847458016230295,0.9815279585097204
3.151291,0.7193336086864126,0.2392952926687089,0.00841787293445111,0.9670467742895724
3.153593,0.7094268075129798,0.23439956866416656,0.008371343926982931,0.9521977201041292
3.155894,0.7009580434766103,0.22978689612172234,0.008316575407775598,0.9390615150061082
3.158196,0.6912228180182164,0.2247263818823969,0.008261806888568264,0.9242110067891816
3.160498,0.6811061516340158,0.22013551981220345,0.008210431109488818,0.909452102555708
3.162799,0.6722229886248828,0.2154700174591964,0.008153723881636975,0.8958467299657161
3.165101,0.6625987542363871,0.21065765792636792,0.008097986008107391,0.8813543981708624
3.167402,0.6521932202641546,0.2053717688071185,0.008055334417928226,0.8656203234892014
3.1697040000000003,0.643081774312131,0.20092970262539087,0.008013167504910192,0.8520246444424321
3.172006,0.6332690005079571,0.1962021615957596,0.007979724780792436,0.8374508868845091
3.174307,0.6227907649615556,0.19128753518193334,0.007947251410996939,0.822025551554486
3.176609,0.6126047897433137,0.1862585249580812,0.007914293364040313,0.8067776080654351
3.1789110000000003,0.6033513333830799,0.18176169025714628,0.007881335317083687,0.7929943589573099
3.181212,0.5942713914465295,0.17703317987319275,0.007848861947288188,0.7791534332670105
3.183514,0.5838198131439902,0.17204730591668085,0.007816873254653816,0.7636839923153249
3.1858150000000003,0.5740579304417343,0.16720828913999042,0.007795062782403108,0.7490612823641278
3.188117,0.5650448739534194,0.16234503850524362,0.007762104735446483,0.7351520171941095
3.190419,0.5548390269715714,0.15805613030643212,0.007729146688489856,0.7206243039664935
3.19272,0.5447276920361429,0.153726509226086,0.00769618864153323,0.7061503899037622
3.1950220000000003,0.5352343204811515,0.14856518213724615,0.007663230594576606,0.6914627332129742
3.197323,0.5255684038567987,0.14443282466147864,0.007630272547619979,0.6776315010658973
3.199625,0.5159897291214488,0.13928409917882814,0.0075973145006633545,0.6628711428009403
3.201927,0.5061619303252798,0.13535579078789506,0.00758568224879631,0.6491034033619711
3.204228,0.4966734055418993,0.1308948221968835,0.0076336652877478685,0.6352018930265307
3.20653,0.4871228420818948,0.1265724712739543,0.007685041066827313,0.6213803544226764
3.208832,0.4769770950680264,0.12222685584729095,0.0077276926570064765,0.6069316435723239
3.211133,0.4676451210076901,0.117848282373671,0.007781976499052683,0.5932753798804138
3.213435,0.4583931186789398,0.1135680983637598,0.00782414341207072,0.5797853604547702
3.215736,0.448455782844356,0.10931554095203284,0.007867279679411008,0.5656386034757999
3.218038,0.4393763255849667,0.10519820846826024,0.007918170781329328,0.5524927048345563
3.22034,0.4302624562471374,0.1010721517955874,0.007962761080152998,0.5392973691228778
3.222641,0.4204574372775413,0.09760186332191917,0.008003958638848778,0.5260632592383092
3.224943,0.4113745872780242,0.09348065342085757,0.008060181189539495,0.5129154218884213
3.227245,0.4022529631056168,0.08941954348777571,0.008101378748235277,0.4997738853416278
3.229546,0.3934085742693741,0.08605297592658863,0.00814548436989782,0.4876070345658605
3.231848,0.3840354026503421,0.08238203110821386,0.00819637547181614,0.474613809230372
3.234149,0.3756994401561213,0.07879445076155292,0.008238542384834175,0.4627324333025084
3.236451,0.3666098046763484,0.07545938721583909,0.008290887518235875,0.4503600794104233
3.238753,0.35795492461010625,0.07208894223736298,0.008333539108415038,0.43837740595588426
3.241054,0.3496175080844022,0.06918669539653541,0.008374736667110819,0.4271789401480484
3.2433560000000003,0.34119575773266203,0.06563691986844236,0.008441137438185198,0.4152738150392896
3.245658,0.3332814643686217,0.06303371883603005,0.008508507563581829,0.4048236907682336
3.247959,0.3245262561300264,0.059943417256685276,0.008573938980333954,0.3930436123670456
3.250261,0.31682231265391514,0.05714101391104982,0.008644217168697347,0.3826075437336623
3.252562,0.3093195101996715,0.054515033052064565,0.00870674052248271,0.3725412837742188
3.254864,0.30228102846578736,0.052086800474819055,0.008779442096651737,0.3631472710372581
3.257166,0.2942063069614141,0.04966777676363495,0.008842450127598229,0.35271653385264723
3.259467,0.2876699507664574,0.047229850643166905,0.00890351944990021,0.3438033208595245
3.261769,0.280251966815411,0.0448360301443614,0.008979129087035999,0.3340671260468084
3.264071,0.27373305899825484,0.042520727345658434,0.009040198409337985,0.3252939847532513
3.266372,0.26741868494309423,0.040622246905524566,0.009103206440284471,0.31714413828890325
3.2686740000000003,0.2611401769978571,0.03885075188160594,0.00917445398297012,0.3091653828624331
3.270975,0.25482774165134103,0.03675258445108781,0.009235523305272105,0.3008158494077009
3.273277,0.2489883512140847,0.035169144165686395,0.009309678910924513,0.2934671742906956
3.275579,0.24365496373304485,0.033448540243686084,0.009368809524581986,0.2864723135013129
3.27788,0.23828910288220956,0.03186413060396241,0.009362993398648463,0.2795162268848204
3.280182,0.2329629855585866,0.03018181617769112,0.009349907115298038,0.2724947088515758
3.282484,0.2281137905615125,0.02895122086559005,0.00934166760355888,0.2664066790306614
3.284785,0.22315021175441244,0.027337245919037644,0.009330520028852964,0.2598179777023031
3.287087,0.21853850856629045,0.0262549618182414,0.009310163588085636,0.2541036339726175
3.289388,0.2142064641001387,0.025105307592048508,0.009302408753507609,0.2486141804456948
3.29169,0.2102335654103819,0.023993942861584645,0.009294653918929578,0.2435221621908961
3.293992,0.20604256199811805,0.02286319104467571,0.00927429747816225,0.23818005052095603
3.296293,0.20240505990386104,0.02175085695988959,0.009264119257778586,0.23342003612152926
3.298595,0.1990724197439528,0.020654517221420657,0.009252971683072668,0.22897990864844614
3.300897,0.1961890753124092,0.01956980973481877,0.009241339431205623,0.2250002244784336
3.3031980000000005,0.19317680675600585,0.01893003588213133,0.009224375730566186,0.22133121836870331
3.3055,0.1911794521750021,0.017828364694890003,0.00921710557314928,0.21822492244304134
3.307801,0.1895756554488333,0.01710134895319973,0.009207896707087871,0.21588490110912092
3.310103,0.18836444722317736,0.016113092221662084,0.009186570911998291,0.2136641103568377
3.3124050000000005,0.18736940501138394,0.01561581345434594,0.009179785431742516,0.2121650038974724
3.314706,0.1868522544804616,0.014971192830047232,0.0091633064082642,0.210986753718773
3.317008,0.18654884657759616,0.014267441592091047,0.009151674156397158,0.2099679623260844
3.31931,0.1853812592964416,0.013609250007280787,0.009141011258852366,0.20813152056257475
3.321611,0.1831444741978412,0.013133781712215345,0.009130348361307576,0.20540860427136412
3.323913,0.17999019523322768,0.012234705578325044,0.009110961274862502,0.2013358620864152
3.326214,0.17739426435823227,0.011811582416661305,0.009104175794606723,0.1983100225695003
3.3285160000000005,0.17327596252013744,0.011355985885202063,0.00909593628286757,0.19372788468820706
3.330818,0.1681790974937275,0.010740930567732095,0.009074610487777987,0.1879946385492376
3.3331190000000004,0.1627637995724572,0.010454486365506126,0.009065886298877704,0.18228417223684104
3.335421,0.15804692144037072,0.009787570591795584,0.00905910081862193,0.17689359285078826
3.3377230000000004,0.15333779814286227,0.009359600658520576,0.009040198409337985,0.17173759721072082
3.340024,0.14987865724389995,0.009070248393327844,0.009029535511793193,0.16797844114902102
3.3423260000000004,0.1468547564356295,0.008653910711919885,0.0090188726142484,0.16452753976179782
3.344627,0.1439733507127304,0.00829767299849165,0.009006755685220231,0.16127777939644228
3.3469290000000003,0.14101003454960087,0.007809118420075788,0.008991730693225298,0.15781088366290194
3.349231,0.13869036965644774,0.007488262139409811,0.008984460535808396,0.15516309233166595
3.351532,0.1372053188347551,0.007237684047107232,0.008973797638263606,0.15341680052012593
3.3538339999999995,0.1358661558385616,0.006823285074343776,0.008954895228979656,0.15164433614188502
3.356135,0.1345807920072532,0.0063831982120405965,0.008949079103046135,0.14991306932233991
3.3584370000000003,0.1335300119219302,0.006391922400940882,0.008929207339439933,0.14885114166231106
3.360739,0.13169502418990395,0.005817095287844438,0.008919513796217395,0.14643163327396574
3.3630400000000003,0.1296918534829667,0.005620316360426937,0.008913212993122747,0.14422538283651634
3.365342,0.12738430551884178,0.005333387481039844,0.008895279938161055,0.14161297293804267
