Wavelength,H2O_NH3_CO2_CH4_10_1_1_1_72K_b,CO_CH3OH_10K,HNCO_NH3,all
2.85208,0.16718226358666055,0.0036383680570634008,0.0003518586392633329,0.17117249028298728
2.854382,0.1767059040893881,0.0039143649755210225,0.0003668313473170918,0.18098710041222624
2.8566830000000003,0.18538009295519906,0.0042198082198177025,0.0003818040553708506,0.18998170523038765
2.858985,0.195725735130078,0.0045671750466649095,0.0003967767634246095,0.20068968694016748
2.861286,0.2048540961401863,0.004953970004720345,0.00041174947147836833,0.210219815616385
2.863588,0.21492224412580216,0.005376200371836344,0.0004267221795321272,0.22072516667717065
2.8658900000000003,0.22522795907920445,0.0058298734258652365,0.00044169488758588604,0.2314995273926556
2.868191,0.23612609418126698,0.006309998264122438,0.00045666759563964493,0.2428927600410291
2.870493,0.2470436938037995,0.0068110848936549,0.0004716403036934037,0.25432641900114783
2.872795,0.25811251777767497,0.007325646960435746,0.0004866130117471626,0.2659247777498579
2.875096,0.2695801148760489,0.007843702659095803,0.0005015857198009215,0.2779254032549456
2.877398,0.2809069685187175,0.008357765635608189,0.0005165584278546803,0.2897812925821804
2.879699,0.2933238353076997,0.00887332588292595,0.0005315311359084391,0.30272869232653404
2.882001,0.3054512297409759,0.009400365206418263,0.0005460047536937394,0.3153975997010879
2.884303,0.317947451882643,0.009938883606085122,0.0005609774617474981,0.32844731295047563
2.886604,0.330053884524644,0.010475405644678148,0.0005754510795327984,0.3411047412488549
2.888906,0.3429952951857761,0.010993461343338206,0.0005904237875865572,0.3545791803167009
2.891208,0.3564203243170448,0.011487061618843787,0.0006048974053718575,0.3685122833412604
2.893509,0.3682552518530043,0.011959700103074108,0.0006198701134256165,0.380834822069504
2.895811,0.3817776035866224,0.012413373157103004,0.0006343437312109166,0.3948253204749363
2.898112,0.3952036308984279,0.012845585329588176,0.0006493164392646755,0.4086985326672808
2.900414,0.4083312022296953,0.013249848447039666,0.0006637900570499758,0.4222448407337849
2.902716,0.4212581392730422,0.013624166148383635,0.0006782636748352759,0.43556056909626106
2.905017,0.43494768624659386,0.013978021148720805,0.0006927372926205762,0.4496184446879353
2.907319,0.4475811582120872,0.014323391614494176,0.0007077100006743349,0.4626122598272557
2.909621,0.4612427561306051,0.0146632720873145,0.0007251781600703869,0.47663120637799
2.911922,0.4748784013551633,0.014985684400738775,0.0008075280543660605,0.4906716138102682
2.9142240000000004,0.4885514783498559,0.015278650388323987,0.0008973643026886136,0.5047274930408685
2.916525,0.5028299518401887,0.015531689154432513,0.000987200551011167,0.5193488415456324
2.918827,0.5170635072063605,0.01573282253262134,0.0010765377090652614,0.5338728674480471
2.921129,0.5316064985389763,0.015873066898058213,0.0011643775963139796,0.5486439430333485
2.92343,0.5484657678075088,0.015955416792353887,0.0012532156640996154,0.5656744002639623
2.925732,0.5636116601844229,0.015984863118192943,0.0013465455443013793,0.5809430688469172
2.928034,0.5806565910328221,0.01596639677825998,0.0014363817926239322,0.5980593696037059
2.930335,0.5954002166533583,0.015904010494702654,0.0015202289577249818,0.6128244561057861
2.932637,0.6088536939299289,0.015801696989668632,0.001651489698329601,0.6263068806179273
2.9349380000000003,0.6217027728913964,0.015666942617184803,0.001920000262760343,0.6392897157713415
2.93724,0.6340986778891035,0.01551122645342571,0.002171042667795033,0.6517809470103242
2.939542,0.6447632387455273,0.015345528484297447,0.002433065058735813,0.6625418322885607
2.941843,0.6540827513284554,0.015177834154095344,0.0026945883594081343,0.6719551738419589
2.944145,0.6653736704717949,0.01501513072657783,0.002955612569811997,0.6833444137681847
2.946447,0.674968680882912,0.01486041274335566,0.003206155884578228,0.6930352495108458
2.948748,0.6851461296373204,0.014701702037985816,0.0034776609906197226,0.7033254926659259
2.95105,0.6954997572564946,0.014527020444025294,0.003974754898004516,0.7140015325985244
2.953351,0.7033928698521679,0.01433586887120564,0.004495805138275325,0.7222245438616488
2.955653,0.7129584339374458,0.014149708201070569,0.004929514581565872,0.7320376567200823
2.957955,0.7189400308049225,0.013989001134626894,0.0052129978540503726,0.7381420297935998
2.960256,0.7244644609864911,0.01385574403294844,0.00551245201512555,0.7438326570345649
2.962558,0.7319787640684042,0.013737459639323744,0.0054575520855951005,0.7511737757933231
2.96486,0.7363502957298333,0.01362266887757826,0.00536721674700409,0.7553401813544157
2.967161,0.7418477750369051,0.013505881754758942,0.005262906880896236,0.7606165636725604
2.969463,0.7456208974664523,0.013382606458449658,0.005160593375862217,0.7641640973007642
2.971764,0.7528187773181626,0.013252842988650416,0.005069758947002747,0.7711413792538158
2.974066,0.7582773275842948,0.013124077699388087,0.004966946351700269,0.7763683516353831
2.976368,0.7641860572725764,0.013005294215494937,0.00486463284666625,0.7820559843347376
2.978669,0.7693701078910562,0.0128934979953602,0.004771802056732945,0.7870354079431494
2.980971,0.7764561915226318,0.012776211782272428,0.004671484912772761,0.793903888217677
2.983273,0.7844276612904529,0.012640958319520137,0.004569171407738742,0.8016377910177118
2.985574,0.7879098140934888,0.012485242155761044,0.004480832430221565,0.8048758886794715
2.987876,0.7965495657307762,0.01231006147153207,0.004377520744650629,0.8132371479469588
2.990177,0.8051853246459157,0.012118410808443955,0.004247757274851385,0.8215514927292111
2.992479,0.8102221436352002,0.011918275610792044,0.004094037472166128,0.8262344567181583
2.994781,0.8179191137553693,0.011717641322871676,0.003942314030554704,0.8335790691087956
2.997082,0.8262304639960107,0.011520001576562057,0.00379108967921174,0.8415415552517845
2.999384,0.8319076157997276,0.011317870017836316,0.003639865327868777,0.8468653511454327
3.001686,0.8396310377041251,0.01110425938293602,0.00348914006679427,0.8542244371538552
3.003987,0.8475481066326842,0.010878171491324263,0.0033379157154513053,0.8617641938394598
3.006289,0.8543212606659362,0.010643599065148706,0.0031727168365915,0.8681375765676763
3.0085900000000003,0.8619523508706688,0.010404035736288566,0.003192181357061386,0.8755485679640187
3.010892,0.8701429212663433,0.010158483324206921,0.0033089684798807053,0.8836103730704309
3.013194,0.8774685682267791,0.009907440919172231,0.0034197665194785213,0.8907957756654298
3.015495,0.8867251954358812,0.00964941125037912,0.0035310636493447955,0.8999056703356051
3.0177970000000003,0.8942599612188008,0.009382397956753752,0.0036428598694795283,0.9072852190450345
3.020098,0.902000352192326,0.009104404677222296,0.0037651369852518923,0.9148698938548
3.0224,0.9099254065651804,0.00881942413393242,0.003875935024849707,0.9226207657239628
3.024702,0.9152382224729226,0.00853594086144792,0.003986233974179065,0.9277603973085496
3.027003,0.9190537675752888,0.008261940304064132,0.004096033833239962,0.931411741712593
3.029305,0.9272643015817016,0.007994927010438767,0.0042063327825693185,0.9394655613747098
3.031607,0.9343803306293847,0.007725917355739567,0.004328609898341685,0.9464348578834659
3.0339080000000003,0.9381824002945024,0.007450918617818863,0.004438908847671039,0.9500722277599924
3.03621,0.943214727471371,0.007180910782582744,0.004553699609416525,0.9549493378633704
3.038511,0.948326410000924,0.006931864738621888,0.004717900307739414,0.9599761750472854
3.040813,0.9537709857395392,0.006706775027547047,0.0049015655265321895,0.9653793262936186
3.043115,0.9569526862009632,0.006492665302378296,0.005085729835593422,0.9685310813389348
3.045416,0.9627052006352173,0.006274562855061875,0.005265402332238529,0.9742451658225176
3.047718,0.9652620400805308,0.006056460407745454,0.005448568460762845,0.9767670689490392
3.05002,0.9686184221359152,0.005854328849019709,0.005620255513112613,0.9800930064980476
3.052321,0.9713808867718337,0.005681643616133025,0.005800427100026179,0.9828629574879928
3.054623,0.9752198891168176,0.0055289219939846845,0.0059830941382820356,0.9867319052490842
3.056924,0.974810136006413,0.005379194913447095,0.006165761176537893,0.986355092096398
3.059226,0.9778091694295808,0.005225475110761838,0.006339444589961497,0.9893740891303042
3.061528,0.9796887433805959,0.005082735293982671,0.006506140739626679,0.9912776194142052
3.063829,0.9788188290426728,0.004969441803042561,0.006663853264459604,0.9904521241101748
3.066131,0.9811530742282536,0.004884097367136136,0.006817573067144863,0.9928547446625346
3.068433,0.9796897415611328,0.004804742014451214,0.006963307425534783,0.9914577910011187
3.070734,0.9785448284852888,0.004709914863444076,0.007119522679562333,0.9903742660282951
3.073036,0.9774702871372972,0.004602111365457012,0.00726276158660996,0.9893351600893644
3.075337,0.9758267828832632,0.004495306048006865,0.007419475930905969,0.987741564862176
3.077639,0.9736737074651326,0.004400478896999726,0.007564711199027428,0.9856388975611596
3.079941,0.9685740031020224,0.004310642648677173,0.007716434640638853,0.9806010803913384
3.082242,0.96698489968725,0.004214318226864657,0.007864664450371065,0.9790638823644856
3.084544,0.9621027986811878,0.004105516548340678,0.008013393350371736,0.9742217085799002
3.086846,0.9579408849325112,0.003981742161762936,0.008151142264466317,0.9700737693587406
3.089147,0.954918893356994,0.003844492337936813,0.008276413921849433,0.9670397996167804
3.0914490000000003,0.9490495917999208,0.003696262528204601,0.008397193766816422,0.961143048094942
3.09375,0.9398383818052484,0.003544539086593178,0.0085289535976895,0.951911874489531
3.096052,0.9382602583763822,0.0033948120060555893,0.008656720706414905,0.9503117910888528
3.098354,0.9309660541028592,0.003246582196323377,0.00877600328057652,0.9429886395797592
3.100655,0.9254675766152506,0.003095357844980413,0.008904768569838847,0.9374677030300698
3.102957,0.9180790442809892,0.002940140771489779,0.00902305296346354,0.9300422380159424
3.105259,0.9115085208967312,0.002784424607730687,0.00910290740641692,0.9233958529108788
3.10756,0.9034776593869636,0.0026312038953138885,0.009138841905745944,0.9152477051880236
3.109862,0.8964888983577373,0.002482974085581676,0.009174277314806505,0.9081461497581254
3.112163,0.8890689233365628,0.002338736997997132,0.009198732737960978,0.900606393072521
3.114465,0.8805414670096787,0.0021979935422917992,0.009233169966484623,0.8919726305184551
3.116767,0.8732018455217261,0.002060743718465676,0.009265610833934436,0.8845282000741261
3.119068,0.8646334637928283,0.0019289838875925984,0.009301545333263456,0.8758639930136843
3.12137,0.8573931612682991,0.0018037122302094824,0.009337479832592477,0.868534353331101
3.123672,0.8489260948638986,0.001683930565779412,0.009338977103397851,0.8599490025330758
3.125973,0.8403447367880207,0.0015671434429600929,0.00927758900037744,0.8511894692313582
3.128275,0.8317369269279149,0.0014538499520199842,0.009228179063800038,0.842418955943735
3.130576,0.8226774403748538,0.0013500391761805894,0.009170783682927295,0.8331982632339617
3.132878,0.814165455846292,0.0012607020181264954,0.009113388302054552,0.8245395461664731
3.13518,0.8050216230378614,0.0011833430265154078,0.009060983823866395,0.8152659498882433
3.137481,0.796762677275408,0.0011114740278573652,0.00900159208191982,0.8068757433851852
3.139783,0.7870528761025454,0.0010381077583939472,0.008943198520510159,0.7970341823814495
3.142085,0.7795879829572098,0.0009647414889305283,0.008894287674201216,0.7894470121203415
3.144386,0.768314531973266,0.0008953679416147793,0.008837391383596932,0.7780472912984778
3.146688,0.7606944217544398,0.0008329816580574508,0.008785485995677234,0.7703128894081744
3.148989,0.7504236431198297,0.0007755862771847082,0.008726593343999117,0.7599258227410135
3.151291,0.7407248219328733,0.0007211854379227179,0.008668199782589456,0.7501142071533855
3.153593,0.7305234168455789,0.0006687809597345619,0.008620287116817428,0.7398124849221308
3.155894,0.7218028125848012,0.0006218664744994509,0.008563889916481604,0.7309885689757822
3.158196,0.7117780854525412,0.0005834365238281366,0.00850749271614578,0.7208690146925151
3.160498,0.7013605742790043,0.000550496566109867,0.008454589147689163,0.7103656599928033
3.162799,0.6922132478386945,0.0005180556986600564,0.008396195586279503,0.7011274991236341
3.165101,0.6823028123779116,0.00048162210906257626,0.008338800205406761,0.6911232346923809
3.167402,0.6715878434043733,0.00044169488758588604,0.008294880261782402,0.6803244185537415
3.1697040000000003,0.6622054454476195,0.00039927221476690266,0.008251459408426505,0.6708561770708129
3.172006,0.6521008638724062,0.0003583468127532951,0.008217022179902856,0.6606762328650623
3.174307,0.6413110313585991,0.00032590594530348434,0.008183583131916127,0.6498205204358187
3.176609,0.6308221502766724,0.0003079386956389737,0.008149644993660941,0.6392797339659723
3.1789110000000003,0.6212935188712604,0.0003049441540282219,0.008115706855405755,0.6297141698806944
3.181212,0.6119435617819564,0.0003089368761758909,0.008082267807419026,0.6203347664655513
3.183514,0.6011811792329146,0.00031342868859201856,0.008049327849700758,0.6095439357712074
3.1858150000000003,0.5911290021358893,0.00031342868859201856,0.00802686878762012,0.5994692996121014
3.188117,0.5818479195036327,0.000303446883222846,0.007992930649364934,0.5901442970362204
3.190419,0.5713385757206993,0.00028298418221604224,0.007958992511109745,0.5795805524140252
3.19272,0.5609265545401154,0.00026202239094077985,0.007925054372854559,0.5691136313039107
3.1950220000000003,0.5511508734518163,0.0002515414953031487,0.007891116234599373,0.5592935311817189
3.197323,0.5411975162279459,0.0002555342174508177,0.007857178096344184,0.5493102285417409
3.199625,0.531333995252398,0.00026900965469920057,0.007823239958089001,0.5394262448651862
3.201927,0.5212139418788625,0.0002864778140952527,0.007811261791645991,0.5293116814846038
3.204228,0.5114432516932478,0.000303446883222846,0.007860671728223396,0.519607370304694
3.20653,0.5016086779532705,0.0003154250496658531,0.00791357529668001,0.5098376782996163
3.208832,0.4911612213636261,0.0003199168620819808,0.00795749524030437,0.4994386334660124
3.211133,0.4815517373347237,0.0003239095842296498,0.008013393350371736,0.489889040269325
3.213435,0.472024603200117,0.0003358877506726569,0.008056814203727638,0.4804173051545173
3.215736,0.4617917554259097,0.0003578477224848365,0.008101233237620454,0.470250836386015
3.218038,0.4524422974268742,0.00037980769429701616,0.008153637715808609,0.4609757428369798
3.22034,0.4430574040187781,0.000390787680203106,0.008199554020506804,0.45164774571948796
3.222641,0.4329608078878601,0.0003917858607400232,0.008241976693325787,0.44159457044192585
3.224943,0.4236078562569454,0.0003977749439615267,0.00829987116446699,0.432305502365374
3.227245,0.414214977404554,0.0004197349157737064,0.008342293837285972,0.4229770061576136
3.229546,0.4051075781857209,0.0004506785124181413,0.008387711051715705,0.4139459677498548
3.231848,0.3954556714839995,0.00047463484530415554,0.008440115529903865,0.4043704218592075
3.234149,0.3868718179567796,0.00048162210906257626,0.008483536383259764,0.3958369764491019
3.236451,0.3775118790621064,0.00047812847718336593,0.008537438132253295,0.3865274456715431
3.238753,0.3685996241382408,0.0004741357550356969,0.008581358075877656,0.3776551179691541
3.241054,0.3600142733402154,0.0004761321161095314,0.008623780748696639,0.3691141862050216
3.2433560000000003,0.35134208083547824,0.0004871121020156212,0.00869215611547547,0.3605213490529693
3.245658,0.3431924358418173,0.0005100702543647181,0.00876152966279122,0.3524640357589732
3.247959,0.3341768692323807,0.000537021128861484,0.008828906849033135,0.34354279721027536
3.250261,0.3262438294152308,0.0005549883785259946,0.008901274937959636,0.3357000927317164
3.252562,0.3185179120594912,0.0005559865590629119,0.008965657582590797,0.3280395562011449
3.254864,0.311270123180935,0.0005509956563783256,0.009040521122859592,0.3208616399601729
3.257166,0.30295527930841426,0.0005564856493313706,0.009105402857759216,0.3126171678155049
3.259467,0.2962245479479812,0.0005789447114120088,0.009168288231585,0.3059717808909782
3.261769,0.2885859713892219,0.000602901044298023,0.009246146313464548,0.2984350187469844
3.264071,0.2818732072784533,0.0006103873983249026,0.009309031687290336,0.2917926263640686
3.266372,0.2753710592609743,0.0006019028637611058,0.009373913422189958,0.2853468755469254
3.2686740000000003,0.2689058439233613,0.0005944165097342264,0.009447279691653376,0.2789475401247489
3.270975,0.2624056922669561,0.0006034001345664817,0.009510165065479165,0.2725192574670017
3.273277,0.2563926527125665,0.0006218664744994509,0.009586525876553334,0.2666010450636193
3.275579,0.2509006633984477,0.0006313491896001648,0.009647414889305286,0.2611794274773532
3.27788,0.2453752350363423,0.0006213673842309922,0.009641425806083782,0.2556380282266571
3.280182,0.2398907320762505,0.0006053964956403162,0.009627950368835398,0.2501240789407262
3.282484,0.2348973339403219,0.0005994074124188126,0.009619465834271602,0.2451162071870123
3.284785,0.2297861505010371,0.0006113855788618197,0.009607986758097056,0.2400055228379959
3.287087,0.2250373065966532,0.0006368391825532098,0.00958702496682179,0.2352611707460282
3.289388,0.22057643777717,0.0006687809597345619,0.009579039522526455,0.23082425825943095
3.29169,0.21648539484661464,0.0007087081812112521,0.009571054078231115,0.226765157106057
3.293992,0.21216976129525286,0.0007596153885940322,0.009550092286955851,0.2224794689708028
3.296293,0.20842408883047084,0.0008269925748359472,0.00953961139131822,0.21879069279662505
3.298595,0.2049923441445493,0.0009193242745007933,0.009528132315143671,0.21543980073419375
3.300897,0.20202325613748892,0.0010470913832262023,0.009516154148700664,0.2125865016694158
3.3031980000000005,0.19892141011901854,0.001219277525844429,0.009498685989304614,0.20963937363416765
3.3055,0.1968646591227005,0.0014463635979931051,0.009491199635277734,0.20780222235597134
3.307801,0.19521316942437092,0.0017378323147729435,0.00948171692017702,0.20643271865932086
3.310103,0.19396594284349286,0.002092685495647028,0.009459756948364841,0.20551838528750474
3.3124050000000005,0.19294131052234728,0.002498944974172352,0.009452769684606422,0.20489302518112606
3.314706,0.19240878120590196,0.002944632583905907,0.009435800615478829,0.20478921440528666
3.317008,0.1920963506978468,0.003417770158404687,0.00942382244903582,0.2049379433052873
3.31931,0.19089404224113,0.003906379531225683,0.009412842463129728,0.2042132642354854
3.321611,0.18859074065219344,0.0043974843553889744,0.009401862477223641,0.202390087484806
3.323913,0.18534266118506468,0.004873117381230047,0.009381898866485295,0.19959767743278006
3.326214,0.18266953370720027,0.005314313178547475,0.009374911602726872,0.19735875848847464
3.3285160000000005,0.17842876369610727,0.005700109956065993,0.009366427068163078,0.19349530072033636
3.330818,0.17318033043299635,0.006008547741973426,0.009344467096350898,0.18853334527132068
3.3331190000000004,0.16760399486350808,0.006216668383920675,0.009335483471518642,0.1831561467189474
3.335421,0.16274684837086872,0.006319480979223151,0.00932849620776022,0.1783948255578521
3.3377230000000004,0.1578976873225247,0.006324471881907739,0.009309031687290336,0.17353119089172278
3.340024,0.15433568007653548,0.00624361925841744,0.009298051701384246,0.16987735103633714
3.3423260000000004,0.15122185589162207,0.006123837593987369,0.009287071715478157,0.1666327652010876
3.344627,0.14825476424563552,0.006020525908416433,0.00927459445876669,0.16354988461281866
3.3469290000000003,0.1452033263442795,0.005976106874523615,0.009259122660444472,0.1604385558792476
3.349231,0.1428146803194365,0.006002558658751923,0.009251636306417592,0.15806887528460606
3.351532,0.14128546773687925,0.0061053712540544,0.009240656320511504,0.15663149531144513
3.3538339999999995,0.13990648132512806,0.006288038292310258,0.009221191800041616,0.15541571141747992
3.356135,0.13858289393317574,0.006547066141640287,0.009215202716820112,0.15434516279163615
