Wavelength,H2O_CH4_10_0.6_a_V3,H2O_40K,H2O_CH3OH_CO_NH3_120K_NASA,all
2.85208,0.23794290756035025,0.06539038938589581,0.055242473023484964,0.35857576996973106
2.854382,0.247820388045932,0.06786831345501088,0.05877794407867674,0.3744666455796196
2.8566830000000003,0.2579895399749929,0.07065322907646418,0.06258836342544506,0.3912311324769021
2.858985,0.2681498384706936,0.07324883819371665,0.06671504708613776,0.408113723750548
2.861286,0.27898103047213746,0.0759936339123958,0.07051415371250133,0.42548881809703465
2.863588,0.2903129333158441,0.0788237215725281,0.07453951474696009,0.4436761696353323
2.8658900000000003,0.3010132912465198,0.08187580602801045,0.07870407142813828,0.4615931687026685
2.868191,0.31259997622803803,0.08474512203752185,0.0828401003796001,0.48018519864516
2.870493,0.3243253649988668,0.08757164348407423,0.08700416520336941,0.4989011736863104
2.872795,0.33589139196921103,0.09061570395900173,0.0913202139664896,0.5178273098947024
2.875096,0.34754496955834,0.09376496773453696,0.09521277350054463,0.5365227107934216
2.877398,0.3595762936375061,0.09686995102478814,0.09924502053872804,0.5556912652010223
2.879699,0.3715392495368349,0.10009053907192177,0.10325660956573753,0.5748863981744942
2.882001,0.3833994072377029,0.1033200426530052,0.1072504917260265,0.5939699416167346
2.884303,0.3944445572120193,0.10642502594325637,0.11140865426088896,0.6122782374161647
2.886604,0.40724121141943787,0.1095915264177612,0.11533810310061172,0.6321708409378108
2.888906,0.41978160791681823,0.11266738563044305,0.1195788976801698,0.6520278912274311
2.891208,0.43152076869509626,0.1157551322217246,0.12309420258159658,0.6703701034984174
2.893509,0.4432540271844674,0.1189222270651594,0.12744173021888655,0.6896179844685133
2.895811,0.455005484397968,0.12207921763678445,0.13201649597908946,0.7091011980138419
2.898112,0.467031889903045,0.12550337704243858,0.1362430266937894,0.7287782936392729
2.900414,0.4782629619779266,0.12858131654637533,0.14044644011027088,0.7472907186345729
2.902716,0.4901221359639769,0.13140278585702286,0.14487364864780308,0.7663985704688028
2.905017,0.5010507157323835,0.13436244594389224,0.14971254183658672,0.7851257035128625
2.907319,0.5126757655917961,0.1373322103025714,0.1539213656845661,0.8039293415789335
2.909621,0.5225409496421553,0.14005887776888598,0.15862696551553715,0.8212267929265783
2.911922,0.5313963504320374,0.14319417387456648,0.16351160144334873,0.8381021257499526
2.9142240000000004,0.5439067436274745,0.14590925114674633,0.16841738723974312,0.8582333820139639
2.916525,0.5538353772835821,0.1486451313314757,0.17366648950755148,0.8761469981226093
2.918827,0.564136346998229,0.1514053806423345,0.17895346479584534,0.894495192436409
2.921129,0.5741510557008946,0.154043784322546,0.18413960931531426,0.9123344493387548
2.92343,0.5834737210292342,0.15648456033353694,0.1894944609260367,0.929452742288808
2.925732,0.5930310023416203,0.15877733848096115,0.19497326060380255,0.946781601426384
2.928034,0.6017378621940138,0.16145972546199167,0.20107229247419464,0.9642698801302002
2.930335,0.6097674343943486,0.16307908361174078,0.2061217006339886,0.978968218640078
2.932637,0.6195106378072999,0.16584408787403954,0.21379664364250453,0.999151369323844
2.9349380000000003,0.6271870563880425,0.1683407345644492,0.21989272436844315,1.0154205153209348
2.93724,0.6351954787197943,0.17061538445950875,0.2259469972146251,1.031757860393928
2.939542,0.6429264934729252,0.17278691134521565,0.2329176004135925,1.0486310052317334
2.941843,0.6475376566813871,0.17492782823102826,0.2394568446649524,1.0619223295773677
2.944145,0.6562154969466553,0.17679919880709175,0.24592673702165696,1.078941432775404
2.946447,0.6651402496311927,0.17885541812038114,0.2520833162088907,1.0960789839604643
2.948748,0.6681932085682512,0.18091698675404047,0.2579374030896492,1.1070475984119408
2.95105,0.6770166386265546,0.18289296626178167,0.2648794785589003,1.1247890834472365
2.953351,0.6834206220904662,0.18484338790553345,0.2707925883287272,1.1390565983247267
2.955653,0.6901728405998809,0.18557773071853212,0.2749586205821321,1.1507091919005452
2.957955,0.6947928572417029,0.1881980061463791,0.28262028344060763,1.1656111468286898
2.960256,0.7015534373270691,0.19022747885781915,0.28752508552218425,1.1793060017070722
2.962558,0.7055925703689769,0.19119035652439775,0.29248841863542024,1.1892713455287949
2.96486,0.7116655337966972,0.19352147146780613,0.2996277289256413,1.2048147341901445
2.967161,0.71603863801925,0.19484602262828174,0.30477993528389585,1.2156645959314276
2.969463,0.7193631022460226,0.19688470805813654,0.31078895724845873,1.227036767552618
2.971764,0.7251571825228951,0.19845978572260167,0.3158088539637185,1.2394258222092152
2.974066,0.7306999236638183,0.20006874241607606,0.3208238321048893,1.2515924981847837
2.976368,0.7350400734399748,0.2022105508552836,0.32594997002047205,1.2632005943157305
2.978669,0.7400034065532106,0.2035163793944646,0.3310711893619657,1.274590975309641
2.980971,0.7451659419170522,0.2053446582231041,0.3361550275403828,1.286665627680539
2.983273,0.7490742408881922,0.2069473740428136,0.3414665956991219,1.2974882106301278
2.985574,0.751080035401697,0.2085361221926684,0.34663306592223464,1.3062492235166
2.987876,0.757320722205853,0.21016766490548225,0.3513667016255131,1.3188550887368482
2.990177,0.7625157201586821,0.21178107936593146,0.3565612077209333,1.3308580072455467
2.992479,0.7653522618358233,0.21339449382638068,0.36187572702412574,1.3406224826863298
2.994781,0.769776519228902,0.21501712100524475,0.3665542746976071,1.3513479149317538
2.997082,0.7730463872832863,0.2166566876986134,0.3714290734772407,1.3611321484591403
2.999384,0.7772930841517512,0.21830606147932685,0.3756782296327501,1.3712773752638276
3.001686,0.7819539249585122,0.21994830283288044,0.3811693257457386,1.3830715535371314
3.003987,0.7852301871592123,0.2215878695262491,0.3864085908653688,1.39322664755083
3.006289,0.7880165593806454,0.22277720175515275,0.3912037087447601,1.4019974698805584
3.0085900000000003,0.7920010962501653,0.22438051194379224,0.39610260853743,1.4124842167313876
3.010892,0.7955311568738591,0.2259728263072269,0.4003020870946402,1.4218060702757265
3.013194,0.798097668833513,0.2273639467878611,0.4055285639216391,1.4309901795430133
3.015495,0.8018697233023867,0.2285104844538057,0.409744765630752,1.4401249733869443
3.0177970000000003,0.8046383886570994,0.2297744099834227,0.4139476871898247,1.4483604858303467
3.020098,0.8073121255318939,0.2308962813387728,0.4186955867579613,1.4569039936286283
3.0224,0.8084286418501029,0.2317283978407544,0.4233151115423743,1.4634721512332316
3.024702,0.8084532347205479,0.232468981527518,0.42733260285829067,1.4682548191063565
3.027003,0.8094930212829681,0.2331979750201468,0.431455843517121,1.4741468398202358
3.029305,0.8140495883190415,0.23412073278395135,0.4352165852655903,1.4833869063685832
3.031607,0.8157646951038848,0.23506875122728035,0.4391032425107385,1.4899366888419037
3.0339080000000003,0.8162437642201559,0.235220612488892,0.44363767596341136,1.4951020526724592
3.03621,0.8166515140121361,0.23573474161333055,0.4466812896097006,1.4990675452351672
3.038511,0.8155359814087453,0.23572671763277575,0.450581718862298,1.501844417903819
3.040813,0.8170902508208773,0.2362340115145195,0.4542249066900394,1.5075491690254363
3.043115,0.8166411850065491,0.2363582346208868,0.457453950579485,1.5104533702069207
3.045416,0.8151744662132017,0.23568243714749176,0.4606328250132225,1.5114897283739162
3.047718,0.8139364611149938,0.2357079950114812,0.4639489276640437,1.5135933837905189
3.05002,0.8124658074623752,0.2355002630704508,0.4671528868256351,1.5151189573584611
3.052321,0.8106926615032813,0.23459474200561584,0.4704960416339461,1.5157834451428434
3.054623,0.8084955344577134,0.23418135841481005,0.4722509888689103,1.5149278817414338
3.056924,0.8034800644591338,0.23324314705882584,0.4756389027014314,1.5123621142193908
3.059226,0.8018844790246539,0.2329138666716131,0.4781119617533936,1.5129103074496606
3.061528,0.7993278042131781,0.2317489035688389,0.4811427871070513,1.512219494889068
3.063829,0.7949974915851998,0.2309352125036869,0.4830762785814473,1.509008982670334
3.066131,0.7923813020272471,0.22974974367282824,0.4851460145581095,1.5072770602581846
3.068433,0.7870894081648641,0.22825163678479646,0.4870804897473233,1.5024215346969838
3.070734,0.7827330270942139,0.2273339311568968,0.4886583683150828,1.4987253265661935
3.073036,0.7779128244869685,0.2256780193179535,0.49015164740851097,1.4937424912134332
3.075337,0.7733198600026362,0.22406222738178427,0.4916901773835584,1.4890722647679788
3.077639,0.7684248950692377,0.22313352592867985,0.492479608524847,1.4840380295227646
3.079941,0.7615684027891356,0.22157479340978944,0.4931593554639503,1.4763025516628754
3.082242,0.7566763890001905,0.21937711429116316,0.493675805743298,1.4697293090346517
3.084544,0.7508759145770023,0.21779965915097807,0.4951779382700866,1.463853511998067
3.086846,0.7453671115972933,0.21590005605074014,0.4951651499774552,1.4564323176254883
3.089147,0.7388780368016417,0.214057215183316,0.4951435082514634,1.4480787602364211
3.0914490000000003,0.7326235779900364,0.2122752971312155,0.4939414087441055,1.4388402838653571
3.09375,0.724092311232621,0.21035043335145315,0.4938130339603819,1.428255778544456
3.096052,0.7187177853255423,0.208327795882708,0.4924860026711628,1.4195315838794131
3.098354,0.7120762347331309,0.20630486122949784,0.4924422273617704,1.4108233233243992
3.100655,0.7048478982518984,0.20388994026696133,0.4910428930334426,1.3997807315523023
3.102957,0.6975939851854029,0.2020783037683615,0.4891748185944305,1.3888471075481952
3.105259,0.689722791070735,0.1995373765926678,0.48827865439541,1.3775388220588127
3.10756,0.6820940826586559,0.19738605825058048,0.4865178048715388,1.3659979457807752
3.109862,0.6741609145104661,0.1945957933087573,0.48417853103479797,1.3529352388540214
3.112163,0.6660246092523996,0.19245160739382985,0.482734929539669,1.3412111461858984
3.114465,0.6578981411425111,0.19018349555700007,0.4803130236582327,1.3283946603577441
3.116767,0.6494834445910056,0.18754093129427868,0.4774356578161526,1.3144600337014367
3.119068,0.6407023142698678,0.18535751702997208,0.47571120574054,1.30177103704038
3.12137,0.632359428900062,0.182607966359853,0.4724629794121474,1.2874303746720623
3.123672,0.6234676306619212,0.17993568365063226,0.4700332038121686,1.273436518124722
3.125973,0.614375154600948,0.1772595375433665,0.4674219328283048,1.2590566249726194
3.128275,0.6054194148996498,0.17463272405728972,0.4643842214709225,1.244436360427862
3.130576,0.5963008703960047,0.17205524319240187,0.4612614187818,1.2296175323702063
3.132878,0.5868896707340626,0.16953838795837262,0.4582261667114621,1.2146542254038972
3.13518,0.5775237219537396,0.1664895725320052,0.4552327225208809,1.1992460170066257
3.137481,0.5680293983896929,0.16394299885147665,0.4522461643340244,1.1842185615751941
3.139783,0.5589693849177073,0.16094321886183316,0.44927829672870623,1.1691909005082466
3.142085,0.5494312860442684,0.15806469013390692,0.44527162627578576,1.1527676024539608
3.144386,0.5395488869845977,0.15539983703631102,0.4421680060256105,1.137116730046519
3.146688,0.5300712865724538,0.15232427500809415,0.4391784966943005,1.1215740582748484
3.148989,0.5211307944508314,0.1497955323954652,0.4356897520929545,1.106616078939251
3.151291,0.5107875249990191,0.14672621124101326,0.4324125061774366,1.0899262424174692
3.153593,0.5014840421096266,0.14372435096011474,0.4284589563246777,1.073667349394419
3.155894,0.4918962656378886,0.14089604640677242,0.4254487889821938,1.0582411010268549
3.158196,0.4821545377971639,0.13779314340777618,0.4215621317370456,1.0415098129419855
3.160498,0.4725220023012157,0.13497821215535855,0.41753381955813335,1.0250340340147075
3.162799,0.4631531023764393,0.132117514495332,0.41423493191662375,1.009505548788395
3.165101,0.4530390384771754,0.12916676994241238,0.4100531602261339,0.9922589686457216
3.167402,0.4439701715718296,0.12592567616719422,0.4067990316088345,0.9766948793478584
3.1697040000000003,0.4343174699221163,0.12320198054552957,0.4027072698241738,0.9602267202918195
3.172006,0.4236289165692542,0.1203032432739838,0.3984709019612959,0.942403061804534
3.174307,0.4146289097011547,0.1172897927989506,0.3947219647906404,0.9266406672907456
3.176609,0.40561414711078814,0.11420620679017895,0.3901275247340813,0.9099478786350484
3.1789110000000003,0.39627672606018144,0.11144892932397003,0.38634563311702935,0.8940712885011808
3.181212,0.3865659852362177,0.10854959768349427,0.3821082815393336,0.8772238644590455
3.183514,0.3775207274864992,0.10549246109210704,0.37806422992333655,0.8610774185019427
3.1858150000000003,0.36796492174633977,0.1025253713936128,0.37357849035414503,0.8440687834940975
3.188117,0.35893392786147943,0.0995434224718689,0.3691675131111065,0.8276448634444549
3.190419,0.3495468292125736,0.09691363714114218,0.3653423380420712,0.8118028043957869
3.19272,0.3407686500358891,0.094258888315356,0.3605319725830039,0.795559510934249
3.1950220000000003,0.3313156424941903,0.09109417094764112,0.3558514574798869,0.7782612709217184
3.197323,0.3226938739735369,0.0885603761991073,0.3511114276302926,0.7623656778029368
3.199625,0.3141193237641381,0.08540338562748226,0.3464102545160017,0.7459329639076221
3.201927,0.3052658904038916,0.08299470553871062,0.3418330294687543,0.7300936254113566
3.204228,0.2961994827855903,0.08025941972291126,0.33729318558458343,0.713752088093085
3.20653,0.28791217730299057,0.07760912866410001,0.3327026803872956,0.6982239863543862
3.208832,0.2788339651068755,0.07494457275096908,0.32727454202264666,0.6810530798804912
3.211133,0.27106065061657914,0.07225980829421856,0.3229511153983929,0.6662715743091906
3.213435,0.2630173064087952,0.06963537228386173,0.317527895607833,0.6501805743004899
3.215736,0.25496019019356186,0.0670278757880095,0.31259013907986,0.6345782050614314
3.218038,0.2469197971302313,0.06450329375789046,0.3081840804109107,0.6196071712990325
3.22034,0.2393978217758841,0.061973362407401526,0.3025793652364657,0.6039505494197515
3.222641,0.23166926630979776,0.05984552163804869,0.29801591219666745,0.5895307001445139
3.224943,0.22394071084371145,0.0573185621322097,0.29261974456359724,0.5738790175395183
3.227245,0.2163936507615102,0.054828453500029885,0.28745720919975565,0.5586793134612957
3.229546,0.2092081058748523,0.05276421020618563,0.2827088177742101,0.5446811338552481
3.231848,0.20204469457159505,0.05051333506832551,0.2777435172313385,0.5303015468712591
3.234149,0.19494965144817525,0.04831357565844426,0.2724796592412631,0.5157428863478826
3.236451,0.18790182663601013,0.04626864935482459,0.2675173098428449,0.5016877858336796
3.238753,0.1814530841478883,0.04420202858526038,0.2625062665609453,0.488161379294094
3.241054,0.17494089205401808,0.04242248800887983,0.2568587597919259,0.4742221398548238
3.2433560000000003,0.16833573890986525,0.040245908987268056,0.2521580785350438,0.4607397264321771
3.245658,0.16215407499477758,0.038649731225788436,0.24707374849921784,0.4478775547197839
3.247959,0.1561622680395263,0.03675488307699043,0.24191760728169198,0.4348347583982087
3.250261,0.15033179031439506,0.035036562500398515,0.2373084115028659,0.4226767643176593
3.252562,0.14498726770925954,0.033426417069064185,0.2317696052212139,0.4101832899995377
3.254864,0.1396879959857431,0.031937522899447186,0.2265839525591539,0.3982094714443442
3.257166,0.1346587539797142,0.03045427523466506,0.22216117073830188,0.3872741999526811
3.259467,0.12916913343895242,0.028959437375748194,0.21692928347980506,0.3750578542945057
3.261769,0.12432384610385305,0.027491643303145723,0.211814950142036,0.3636304395490348
3.264071,0.1197830185048644,0.02607199311387218,0.20716542205567984,0.3530204336744164
3.266372,0.11538482955445747,0.024907921564492983,0.20243818049871712,0.34273093161766754
3.2686740000000003,0.11101024975967788,0.02382171234494206,0.19755502014313228,0.3323869822477522
3.270975,0.10696816557331644,0.022535200795985567,0.1926516936337824,0.3221550600030844
3.273277,0.1027977066032314,0.021564299148852085,0.1877478752670236,0.3121098810191071
3.275579,0.09927354826844438,0.02050929429812547,0.1836890679287595,0.3034719104953293
3.27788,0.0954896892217568,0.019537798282062,0.17905527927948822,0.294082766783307
3.280182,0.09217653771538896,0.01850627100406986,0.17436984560228222,0.28505265432174104
3.282484,0.0890586536003555,0.01775171964745158,0.1698181971402977,0.2766285703881048
3.284785,0.08592355447601042,0.016762095379023508,0.1657175819222768,0.26840323177731074
3.287087,0.0831829249936052,0.016098482468693224,0.16113888130280266,0.2604202887651011
3.289388,0.0805372239911182,0.015393560917728843,0.15747011688979826,0.2534009017986453
3.29169,0.0782500870397212,0.014712116939498946,0.15354706219639125,0.2465092661756114
3.293992,0.07608197958127859,0.014018785582669314,0.14916018596638908,0.23926095113033702
3.296293,0.07420751099595084,0.013336747235509427,0.14565225892609585,0.2331965171575561
3.298595,0.0727934209453559,0.012664515975694323,0.1417631423939031,0.2272210793149533
3.300897,0.07163952346407045,0.011999417143039063,0.13823406548502706,0.22187300609213656
3.3031980000000005,0.07122046095168544,0.01160713364924776,0.13469515142797295,0.21752274602890612
3.3055,0.0713847413262589,0.01093163336031773,0.1312388694156145,0.21355524410219112
3.307801,0.07232664826430736,0.010485856662827607,0.12772749937345895,0.21054000430059394
3.310103,0.07463247579724266,0.009879897538706037,0.12503015334303716,0.20954252667898587
3.3124050000000005,0.07866669026506169,0.009574986277622795,0.12162600821602235,0.20986768475870687
3.314706,0.085026898419581,0.009179730939181556,0.1193619885628438,0.2135686179216064
3.317008,0.09282824878218493,0.00874821909601112,0.11670841784181432,0.2182848857200104
3.31931,0.10081306195830947,0.008344642592550066,0.11482312839349072,0.22398083294435026
3.321611,0.1071501528146104,0.008053104632391525,0.1130126012713203,0.22821585871832226
3.323913,0.1102331150536118,0.007501827449828744,0.11166491197092722,0.2293998544743677
3.326214,0.10695636099550278,0.0072423854118894935,0.1104224801560393,0.2246212265634316
3.3285160000000005,0.0976922266988226,0.006963032014795683,0.11031476338348964,0.21497002209710792
3.330818,0.08412581564647148,0.006585904928719042,0.10966747903337383,0.20037919960856432
3.3331190000000004,0.06968193097663815,0.006410268909907935,0.1104805193302898,0.18657271921683588
3.335421,0.057854235864757686,0.006001343086076996,0.11119715557506088,0.17505273452589554
3.3377230000000004,0.05004157278174902,0.005738929203487814,0.11241991309359267,0.1682004150788295
3.340024,0.045425982856607164,0.0055615100778867435,0.11304014528621885,0.16402763822071276
3.3423260000000004,0.0422736687229505,0.005306228622457403,0.11387040059244642,0.16145029793785431
3.344627,0.04039723270798713,0.005087798040687243,0.1139628697853201,0.15944790053399446
3.3469290000000003,0.03884197958103716,0.004788236099973882,0.11325115211463806,0.1568813677956491
3.349231,0.03751199714736456,0.004591499984148242,0.11193444983100584,0.15403794696251866
3.351532,0.036597634224214665,0.0044378556157466465,0.10998718634916048,0.1510226761891218
3.3538339999999995,0.03570884788632769,0.004183762898177279,0.10776595829055642,0.1476585690750614
3.356135,0.035074843686252265,0.00391391940396326,0.1052092834790808,0.1441980465692963
3.3584370000000003,0.03421065021881041,0.0039192687243331395,0.1033476031863845,0.14147752212952805
3.360739,0.03351565570003106,0.0035668079488509518,0.10179185820202563,0.13887432185090764
3.3630400000000003,0.03290476879817405,0.003446151056063625,0.10109292882397504,0.13744384867821272
3.365342,0.03237503836878597,0.003270217852787525,0.10126999749117996,0.13691525371275348
3.3676440000000003,0.03165348354992587,0.003102011445601252,0.10243963440955034,0.13719512940507747
3.3699449999999995,0.03115228085025414,0.0030051293100134,0.10370911838192792,0.13786652854219544
3.372247,0.030524670796494437,0.0027204265925497096,0.10550292235219562,0.13874801974123974
