Wavelength,H2O_CH3OH_CO_NH3_120K_NASA,CO_CH3OH_10K,CH3OH,all
2.85208,0.05548989686934427,0.003601700128011821,0.011981458135036305,0.0710730551323924
2.854382,0.059041202839186374,0.0038749155149515385,0.012993787841798476,0.07590990619593638
2.8566830000000003,0.06286868855821348,0.004177280463969813,0.014292178505229897,0.08133814752741317
2.858985,0.06701385509785945,0.0045211464844219715,0.01578028835235906,0.0873152899346405
2.861286,0.07082997742827966,0.004904043274436946,0.01726790413911401,0.09300192484183062
2.863588,0.07487336753083779,0.005322018351021035,0.01872488818266777,0.09892027406452658
2.8658900000000003,0.07905657671929815,0.005771119231180532,0.02075053571694053,0.10557823166741924
2.868191,0.08321113040605417,0.006246405311173314,0.02277815949271015,0.11223569520993763
2.870493,0.08739384553414034,0.006742441926883035,0.02478453867238861,0.11892082613341197
2.872795,0.09172922531785828,0.007251818172696503,0.026766708893730645,0.12574775238428545
2.875096,0.09563921911937892,0.0077646528411294624,0.028819035688210905,0.13222290764871927
2.877398,0.09968952606717604,0.008273535026568718,0.031206335416407494,0.13916939651015225
2.879699,0.10371908247925618,0.008783899393130613,0.033204809630098565,0.14570779150248536
2.882001,0.10773085271786467,0.009305627148299404,0.03549428540420098,0.15253076527036508
2.884303,0.11190763912146028,0.009838718292075088,0.037487324953775714,0.15923368236731106
2.886604,0.11585468745104688,0.010369833194353924,0.03964538066833753,0.16586990131373835
2.888906,0.12011447599751028,0.010882667862786884,0.041677450987475065,0.1726745948477722
2.891208,0.12364552549200965,0.01137129357288341,0.04377967787975082,0.17879649694464386
2.893509,0.12801252513967726,0.011839168747263,0.04586016611556122,0.18571186000250145
2.895811,0.1326077806802311,0.012288269627422495,0.047382366128511065,0.19227841643616467
2.898112,0.1368532414758423,0.012716125911490845,0.049517201005484866,0.199086568392818
2.900414,0.14107548143386547,0.013116314814603269,0.051111533833069815,0.20530333008153856
2.902716,0.14552251886215553,0.01348686009526292,0.053140639789962064,0.2121500187473805
2.905017,0.15038308482366175,0.013837148900579846,0.05518308537695807,0.21940331910119967
2.907319,0.15461075944580124,0.014179038679535154,0.057755163685110265,0.2265449618104467
2.909621,0.1593374350458958,0.014515493794374112,0.06002092456125049,0.2338738534015204
2.911922,0.1642439486222038,0.014834656796115628,0.06293983325210012,0.24201843867041956
2.9142240000000004,0.16917170679460294,0.01512467023577858,0.06551635810362022,0.24981273513400176
2.916525,0.1744443191082027,0.01537515884550451,0.0686971187928027,0.2585165967465099
2.918827,0.17975497407061686,0.015574265176312297,0.07129884072340767,0.2666280799703368
2.921129,0.18496434665631736,0.01571309614146611,0.07450677473317183,0.2751842175309553
2.92343,0.19034318195037286,0.015794616103211232,0.0783520466256706,0.2844898446792547
2.925732,0.19584652045873002,0.015823765665289792,0.08154219446196309,0.2932124805859829
2.928034,0.2019728690989696,0.01580548543144392,0.08538944259595871,0.3031677971263722
2.930335,0.20704489290063896,0.01574372788466731,0.08872385606152136,0.3115124768468276
2.932637,0.21475421097985653,0.01564244550795367,0.09258543194636916,0.32298208843417936
2.9349380000000003,0.22087759525785086,0.015509049206916196,0.09599642476993482,0.33238306923470184
2.93724,0.22695898440403706,0.015354902370161782,0.0997967371683802,0.3421106239425791
2.939542,0.2339608080273819,0.01519087432592311,0.10310792979635486,0.35225961214965984
2.941843,0.24052934070254195,0.015024870040187585,0.10711772379346653,0.3626719345361961
2.944145,0.24702821086493806,0.014863806358194188,0.11051340074543158,0.3724054179685638
2.946447,0.2532123645689605,0.0147106476421882,0.1139352628972299,0.3818582751083786
2.948748,0.2590926711428421,0.014553536443188506,0.1174253053806696,0.3910715129667002
2.95105,0.2660658392644826,0.014380615312214002,0.12028542088698793,0.4007318754636845
2.953351,0.2720054330832697,0.014191390188890473,0.12309217787289126,0.4092890011450514
2.955653,0.2761901244528527,0.01400710566930907,0.1258356951308953,0.416032925253057
2.957955,0.2838861029019665,0.013848018228812528,0.12819137499514227,0.4259254961259213
2.960256,0.2888128729536173,0.013716104108897693,0.1305193874784333,0.4330483645409483
2.962558,0.2937984361897993,0.013599011800209242,0.13312160346941249,0.44051905145942105
2.96486,0.3009697225214992,0.013485377914140279,0.13541058518314072,0.44986568561878015
2.967161,0.30614500494137903,0.01336976778657447,0.1378902742013151,0.4574050469292686
2.969463,0.3121809405331376,0.01324773487414389,0.13955673984353514,0.4649854152508166
2.971764,0.3172233207123542,0.013119279176848546,0.14201913674861208,0.4723617366378148
2.974066,0.3222607602878286,0.012991811600301623,0.1444889445593022,0.4797415164474324
2.976368,0.3274098575078752,0.01287422523123896,0.14651409803320076,0.4867981807723149
2.978669,0.3325540141241795,0.012763555707415277,0.14872304196630648,0.4940406117979013
2.980971,0.3376606221520437,0.012647451519475257,0.15114690216219484,0.5014549758337139
2.983273,0.34299598013316857,0.012513561158063569,0.15392450958601958,0.5094340508772517
2.985574,0.3481855903039005,0.01235941432130915,0.15687948468418678,0.5174244893093964
2.987876,0.3529404273453252,0.012185999129960434,0.15979938149578482,0.5249258079710704
2.990177,0.3581581989573873,0.011996279946262692,0.16274052290347404,0.5328950018071239
2.992479,0.3634965213007573,0.01179816173620333,0.1665324362755578,0.5418271193125185
2.994781,0.36819602358027015,0.011599549465769757,0.1694888935548476,0.5492844666008875
2.997082,0.3730926559490939,0.01140390155758146,0.17321806125940634,0.5577146187660817
2.999384,0.3773608435219189,0.011203807106025249,0.17701442117485805,0.5655790718028022
3.001686,0.3828765335396314,0.010992349265862142,0.18069517096274396,0.5745640537682375
3.003987,0.3881392646457468,0.01076853991634371,0.1838724732293069,0.5827802777913974
3.006289,0.39295585923394816,0.01053633154046366,0.18764017764305427,0.5911323684174661
3.0085900000000003,0.3978767005611084,0.010299182560841485,0.19147803862993984,0.5996539217518897
3.010892,0.4020949880361378,0.010056104856728752,0.19534504917890394,0.6074961420717705
3.013194,0.40734487357252375,0.00980759248849968,0.1992125537882423,0.6163650198492657
3.015495,0.4115799591002764,0.009552163275031623,0.20313292285762144,0.6242650452329295
3.0177970000000003,0.4158017049979255,0.009287840974827741,0.20619906153998646,0.6312886075127397
3.020098,0.4205708697902023,0.00901264934639117,0.21025924969526785,0.6398427688318613
3.0224,0.4252110848248095,0.008730540872715622,0.21348151145588415,0.6474231371534094
3.024702,0.4292465699613803,0.008449914580162712,0.21650071440269905,0.6541971989442421
3.027003,0.4333882780784067,0.008178675434719847,0.2192170583401214,0.660784011853248
3.029305,0.4371658636996384,0.00791435313451596,0.22286767044518027,0.6679478872793346
3.031607,0.4410699287766685,0.007648054592815224,0.22556721632987944,0.6742851996993631
3.0339080000000003,0.4456246713665369,0.0073758273266239325,0.22755531527571202,0.6805558139688728
3.03621,0.4486819169621662,0.007108540664174771,0.23044803876672834,0.6862384963930693
3.038511,0.4525998157296742,0.006862004537442548,0.2325206220365513,0.691982442303668
3.040813,0.4562593209214689,0.006639183308672545,0.23457838349514795,0.6974768877252894
3.043115,0.4595028272781764,0.006427231408135223,0.2366203350217697,0.7025503937080814
3.045416,0.4626959394767142,0.006211327024604199,0.238319902709062,0.7072271692103804
3.047718,0.4660268945196574,0.005995422641073175,0.239953760366584,0.7119760775273145
3.05002,0.46924520379728,0.0057953281895169635,0.2415125208472256,0.7165530528340225
3.052321,0.4726033321608049,0.00562438330003931,0.2431414379010054,0.7213691533618496
3.054623,0.4743661395759964,0.005473200825530171,0.2439003146357964,0.723739655037323
3.056924,0.4777692274335746,0.00532498271326631,0.2446725310006911,0.727766741147532
3.059226,0.480253362995117,0.005172812118008747,0.24552577326695674,0.7309519483800825
3.061528,0.4832977630210166,0.005031510850983865,0.2463622174804991,0.7346914913524996
3.063829,0.4852399143520474,0.004919359146037544,0.2471319635435228,0.7372912370416077
3.066131,0.4873189204067352,0.004834874822047143,0.2470840396872241,0.7392378349160065
3.068433,0.4892620598585144,0.004756319222547298,0.2471828517620667,0.7412012308431284
3.070734,0.4908470055389893,0.004662447751446853,0.24797384242118156,0.7434832957116176
3.073036,0.4923469728350995,0.004555730710616873,0.2480000276210148,0.7449027311667312
3.075337,0.4938923936856374,0.004450001790535318,0.247979771145672,0.7463221666218448
3.077639,0.4946853605862491,0.004356130319434872,0.24715963092447865,0.7462011218301626
3.079941,0.4953681520234112,0.004267199452076557,0.2471858161243119,0.7468211675997997
3.082242,0.4958869154163347,0.004171845799853473,0.24711763579267065,0.7471763970088589
3.084544,0.4973957757991809,0.004064140638275067,0.24635925311825385,0.7478191695557097
3.086846,0.4973829302294514,0.003941613665470275,0.24552083266321456,0.7468453765581362
3.089147,0.49736119157298603,0.003805747062561736,0.24476788465291416,0.7459348232884621
3.0914490000000003,0.4961537080184098,0.003659011131420514,0.2438400392701424,0.7436527584199727
3.09375,0.4960247582607402,0.0035088167776598012,0.24258858434226124,0.7421221593806612
3.096052,0.4946917833711139,0.003360598665395941,0.2414942406133797,0.7395466226498896
3.098354,0.4946478119978088,0.003213862734254718,0.2407185658258655,0.7385802405579291
3.100655,0.4932422102331733,0.003064162440868219,0.2390387605535417,0.7353451332275832
3.102957,0.4913657689319128,0.002910509664488016,0.2379379940397955,0.7322142726361962
3.105259,0.490465590930097,0.0027563628277336005,0.23587183355483726,0.7290937873126678
3.10756,0.4886968547904149,0.002604686292850249,0.2343165314968151,0.7256180725800803
3.109862,0.4863471036506584,0.0024579503617090273,0.2327197283673592,0.7215247823797266
3.112163,0.4848970364523437,0.0023151669135615077,0.23046730712132266,0.7176795104872279
3.114465,0.4824642831697196,0.0021758418880334788,0.22813040155129574,0.7127705266090488
3.116767,0.4795740299805743,0.002039975285124939,0.2258695812788977,0.707483586544597
3.119068,0.4778418543085839,0.0019095433463327414,0.2234822815507011,0.7032336792056177
3.12137,0.4745790795972821,0.0017855341924053114,0.22078668814899569,0.6971513019386829
3.123672,0.4721384213486706,0.0016669597025942226,0.21815927507893165,0.6919646561301964
3.125973,0.4695154548219744,0.0015513495750284114,0.2153737626891195,0.6864405670861223
3.128275,0.4664641379508358,0.0014391978700820894,0.2124988253715748,0.6804021611924926
3.130576,0.4633273486349583,0.0013364333122458127,0.20944849662118453,0.6741122785683886
3.132878,0.4602785020656906,0.0012479965052617091,0.2057534190824465,0.6672799176533988
3.13518,0.4572716506282311,0.0011714171472587145,0.2030108899451908,0.6614539577206806
3.137481,0.4542717160360106,0.001100272453372061,0.19937954619472625,0.6547515346841088
3.139783,0.4512905557380101,0.0010276455783627693,0.19576351831586228,0.6480817196322352
3.142085,0.4472659399296721,0.0009550187033534773,0.19220134301778746,0.640422301650813
3.144386,0.4441484189683889,0.0008863443113378885,0.18874193227754893,0.6337766955572757
3.146688,0.441145520013923,0.0008245867645612798,0.1851935906699521,0.6271636974484364
3.148989,0.4376411497796311,0.0007677698215267996,0.1810350845002024,0.6194440041013602
3.151291,0.4343492255062508,0.0007139172407375969,0.17780491777359864,0.6128680605205871
3.153593,0.4303779682183278,0.0006620409014452455,0.17363307197374514,0.6046730810935181
3.155894,0.42735431872814494,0.0006155992262692359,0.16975123961355465,0.5977211575679688
3.158196,0.4234502536511149,0.0005775565774548447,0.1654874985840976,0.5895153088126673
3.160498,0.4194038991863113,0.0005449485927567954,0.16186109543737512,0.5818099432164433
3.162799,0.4160902362564658,0.0005128346684329589,0.15768233279228264,0.5742854037171814
3.165101,0.411889734954908,0.00047676826111541935,0.1543311212739968,0.5666976244900201
3.167402,0.4086210315191156,0.0004372434311783897,0.1502195508397973,0.5592778257900913
3.1697040000000003,0.4045109432660387,0.0003952482993702959,0.1466820785604331,0.5515882701258421
3.172006,0.4002556012629433,0.00035473534868484045,0.14281309176997214,0.5434234283816003
3.174307,0.3964898730906928,0.000322621424361004,0.13907305473718073,0.5358855492522345
3.176609,0.3918748551351704,0.00030483525088934065,0.13592292579119944,0.5281026161772592
3.1789110000000003,0.3880760249178477,0.00030187088864406337,0.13240126344381012,0.5207791592503018
3.181212,0.3838196947940037,0.00030582337163776645,0.12922741959986667,0.5133529377655082
3.183514,0.3797575303972256,0.00031026991500568223,0.1256627739999208,0.5057305743121521
3.1858150000000003,0.37525169978440415,0.00031026991500568223,0.12261837397402107,0.4981803436734309
3.188117,0.3708209663484631,0.0003003887075214249,0.11966290481547973,0.4907842598714642
3.190419,0.3669786588182097,0.0002801322321786972,0.11667087518924656,0.483929666239635
3.19272,0.36214674835840777,0.00025938169646175664,0.11380334877731504,0.4762094788321846
3.1950220000000003,0.3574452698373981,0.0002490064286032864,0.11096200756521686,0.4686562838312182
3.197323,0.35268401001110866,0.0002529589115969893,0.10802234833865028,0.4609593172613559
3.199625,0.3479617809543821,0.00026629854170073683,0.10544187100413646,0.4536699505002193
3.201927,0.3433640551119571,0.0002835906547981873,0.10295032453698097,0.44659797030373627
3.204228,0.3388038778579723,0.0003003887075214249,0.10024929647115917,0.4393535630366529
3.20653,0.3341928123854436,0.0003122461565025337,0.097853597716601,0.4323586562585472
3.208832,0.3287403620956304,0.00031669269987044955,0.09582547988045716,0.42488253467595793
3.211133,0.3243975714062992,0.00032064518286415247,0.09362444091333882,0.4183426575025022
3.213435,0.3189500617202281,0.00033250263184526137,0.09073468178456776,0.4100172461366411
3.215736,0.3139901896235052,0.00035424128831062764,0.08864332422052468,0.4029877551323405
3.218038,0.30956439679130626,0.000375979944775994,0.0866171826258777,0.39655755936196
3.22034,0.30393457882715064,0.00038684927300867706,0.08458264200486909,0.3889040701050284
3.222641,0.2993506866752036,0.00038783739375710286,0.08290431891366798,0.38264284298262863
3.224943,0.2939303503097142,0.0003937661182476572,0.08081098510812806,0.3751351015360899
3.227245,0.2887446926219759,0.00041550477471302347,0.07880262968695273,0.3679628270836416
3.229546,0.2839750337693249,0.0004461365179142214,0.07761935509071291,0.362040525377952
3.231848,0.278987494291646,0.00046985141587643916,0.07566732255219785,0.35512466825972033
3.234149,0.27370006016681986,0.00047676826111541935,0.07377704756045941,0.3479538759883947
3.236451,0.2687154850513862,0.0004733098384959293,0.07253547384006248,0.3417242687299446
3.238753,0.26368199795890546,0.0004693573555022263,0.0705552798602173,0.334706635174625
3.241054,0.2580091967421933,0.0004713335969990777,0.06930184869083925,0.3277823790300316
3.2433560000000003,0.2532874617458409,0.0004822029252317608,0.06744665198566993,0.3212163166567425
3.245658,0.2481803596576025,0.000504929702445553,0.06626881205354644,0.3149541014135945
3.247959,0.2430011247547289,0.0005316089626530478,0.06431134485091505,0.30784407856829704
3.250261,0.2383712849879801,0.0005493951361247113,0.06307224143238918,0.301992921556494
3.252562,0.23280767111396905,0.0005503832568731369,0.061825233047875884,0.2951832874187181
3.254864,0.2275987925886427,0.0005454426531310082,0.059948791746615424,0.2880930269883891
3.257166,0.22315620170372055,0.0005508773172473499,0.05876601121074981,0.2824730902317177
3.259467,0.2179008815032183,0.000573110034086929,0.057502698833887485,0.2759766903711927
3.261769,0.21276364173215287,0.0005968249320491468,0.056283851890704346,0.26964431855490645
3.264071,0.2080932890147186,0.0006042358376623397,0.054697424029106816,0.2633949488814877
3.266372,0.20334487475815874,0.000595836811300721,0.05380070444991046,0.2577414160193699
3.2686740000000003,0.19843984336297335,0.0005884259056875281,0.052017146499001986,0.2510454157676629
3.270975,0.19351455549244528,0.0005973189924233596,0.05079138271057986,0.2449032571954485
3.273277,0.18858877356154294,0.0006155992262692359,0.049549808990182916,0.2387541817779951
3.275579,0.1845117873535384,0.0006249863733792803,0.04835072446196829,0.23348749818888595
3.27788,0.17985724456807892,0.0006151051658950229,0.04717387265059324,0.2276462223845672
3.280182,0.17515082544332713,0.0005992952339202111,0.04594465043955162,0.22169477111679894
3.282484,0.17057879074036122,0.0005933665094296568,0.04534634332637983,0.2165185005761707
3.284785,0.16645980940054853,0.0006052239584107656,0.044072161621284835,0.2111371949802441
3.287087,0.1618606013770009,0.0006304210374956219,0.04288493454205131,0.2053759569565478
3.289388,0.15817540504574712,0.0006620409014452455,0.0417367382323806,0.20057418417957296
3.29169,0.15423477950102527,0.0007015657313822751,0.041111751859001316,0.19604809709140888
3.293992,0.14982825502342068,0.0007519598895519879,0.03988895243282447,0.19046916734579716
3.296293,0.1463046164345345,0.0008186580400707253,0.039011501208222416,0.18613477568282766
3.298595,0.1423980810556333,0.0009100592093001063,0.03805944686711422,0.1813675871320476
3.300897,0.13885319787065598,0.0010365386650986008,0.03742210898437962,0.17731184552013418
3.3031980000000005,0.1352984334781944,0.001206989494202041,0.03633764646298236,0.1728430694353788
3.3055,0.13182667122860056,0.0014317869644688967,0.035783804783489734,0.16904226297655914
3.307801,0.1282995742170949,0.0017203182230092124,0.03522057595688707,0.1652404683969912
3.310103,0.12559014712491148,0.002071595149074563,0.0349226575512367,0.16258439982522274
3.3124050000000005,0.12217075527498425,0.002473760293683839,0.034759123567372235,0.1594036391360403
3.314706,0.1198965953724824,0.002914956207855932,0.03474874829951378,0.15756029987985212
3.317008,0.11723113965360395,0.0033833254426097327,0.03531296524686487,0.15592743034307854
3.31931,0.11533740623924604,0.0038670105489641312,0.0358361751831563,0.15504059197136644
3.321611,0.11351877000176845,0.004353165957189596,0.03657578356335296,0.154447719522311
3.323913,0.1121650445764252,0.004824005493814461,0.038705677836584636,0.15569472790682432
3.326214,0.1109170480711635,0.005260754864618638,0.0410149160256556,0.15719271896143772
3.3285160000000005,0.11080884884921087,0.005642663533885185,0.043766832310021285,0.16021834469311735
3.330818,0.11015866539674672,0.005947992845148739,0.047885813649833985,0.16399247189172944
3.3331190000000004,0.1109753471953206,0.006154016021195506,0.0521134882719735,0.1692428514884896
3.335421,0.11169519316054877,0.006255792458283357,0.0568811708831277,0.17483215650195982
3.3377230000000004,0.11292342725084195,0.0062607330620254855,0.06219083772479341,0.18137499803766086
3.340024,0.11354643738272438,0.006180695281403002,0.06744615792529571,0.18717329058942309
3.3423260000000004,0.11438041129439573,0.006062120791591913,0.07306016595747655,0.19350269804346415
3.344627,0.11447329464474773,0.005959850294129847,0.07737726550734861,0.19781041044622616
3.3469290000000003,0.1137583892832617,0.005915878920824903,0.08115040458521229,0.20082467278929889
3.349231,0.11243578966149384,0.005942064120658185,0.08399223985768471,0.20237009363983674
3.351532,0.11047980463998508,0.006043840557746036,0.08629900774488461,0.20282265294261573
3.3538339999999995,0.10824862799003976,0.006224666654707946,0.08721548973904948,0.2016887843837972
3.356135,0.10568050216488127,0.006481083988924427,0.08785233356140988,0.2000139197152156
3.3584370000000003,0.10381048364848557,0.00681062225852441,0.08780836218810492,0.1984294680951149
3.360739,0.10224777068485026,0.007211305222011049,0.08776537893554842,0.19722445484240972
