Wavelength,H2O_NH3_CO2_CH4_10_1_1_1_72K_b,H2O_40K,H2O_CH3OH_CO_NH3_120K_NASA,all
2.85208,0.13957925615108693,0.00770772978897467,0.0557617871074343,0.20304877304749588
2.854382,0.14753047435272362,0.007999808936104741,0.059330493820116924,0.2148607771089453
2.8566830000000003,0.15477249155974832,0.008328073950227539,0.06317673351170741,0.22627729902168325
2.858985,0.16340999298002534,0.008634024930202839,0.06734221060121873,0.2393862285114469
2.861286,0.17103119520767104,0.008957560910401126,0.07117703122569853,0.2511657873437707
2.863588,0.179437018747217,0.009291150466424113,0.07524023319239227,0.26396840240603336
2.8658900000000003,0.1880411852206263,0.009650907343496051,0.07944393933266547,0.2771360318967878
2.868191,0.1971399589681862,0.00998912084380078,0.08361884956457258,0.2907479293765596
2.870493,0.2062549835023441,0.0103222900412527,0.08782205922366709,0.30439933276726394
2.872795,0.21549626414776385,0.010681101111539734,0.09217868156698793,0.3183560468262915
2.875096,0.2250704775750254,0.011052312759673263,0.09610783361542563,0.3322306239501243
2.877398,0.2345271853145781,0.011418304955549371,0.10017798631862156,0.34612347658874903
2.879699,0.2448939371036211,0.011797923775104248,0.10422728681231097,0.3609191476910363
2.882001,0.2550190105278727,0.012178593491086796,0.10825871398356626,0.37545631800252577
2.884303,0.2654520155238154,0.012544585686962905,0.11245596586851604,0.3904525670792944
2.886604,0.27555958810096143,0.012917829068189923,0.11642235400535822,0.4048997711745096
2.888906,0.2863642777544799,0.013280388335735645,0.12070301472833395,0.4203476808185495
2.891208,0.29757273695193426,0.013644348798518259,0.12425136571268885,0.4354684514631414
2.893509,0.30745363189037944,0.014017662239507123,0.12863976285144815,0.4501110569813347
2.895811,0.31874334502082396,0.014389784664544632,0.13325753429477885,0.4663906639801475
2.898112,0.3299526375919501,0.01479339895253128,0.13752379706357154,0.482269833608053
2.900414,0.3409127514352396,0.015156203429243457,0.14176672521696412,0.4978356800814472
2.902716,0.35170535717051843,0.0154887771187197,0.14623555230667706,0.5134296865959151
2.905017,0.3631346603909718,0.015837639702824806,0.15111993414298364,0.5300922342367803
2.907319,0.3736822542667726,0.016187693302881268,0.1553683235893422,0.545238271158996
2.909621,0.3850882230244185,0.016509092460343298,0.16011815902621404,0.5617154745109759
2.911922,0.3964725240666004,0.016878657704073482,0.16504871361214213,0.578399895382816
2.9142240000000004,0.4078880766214709,0.017198690696179537,0.17000061688875548,0.5950873842064061
2.916525,0.4198090703082241,0.017521175779950156,0.17529906402811954,0.6126293101162938
2.918827,0.43169256217975105,0.017846533313956404,0.18063574021824555,0.630174835711953
2.921129,0.4438343998895031,0.01815752859678451,0.18587063776673274,0.6478625662530203
2.92343,0.4579100812044222,0.01844522900879929,0.19127582835952286,0.6676311385727444
2.925732,0.4705552766118778,0.018715484540114784,0.19680613220935209,0.6860768933613447
2.928034,0.4847859654297321,0.019031664245319387,0.20296249882555475,0.7067801285006062
2.930335,0.4970953112474949,0.01922254206646496,0.20805937460635607,0.7243772279203159
2.932637,0.5083275215945926,0.019548460078565963,0.2158064669191969,0.7436824485923554
2.9349380000000003,0.5190551241834792,0.01984274610819414,0.22195985464832715,0.7608577249400005
2.93724,0.5294043751254167,0.02011086481677336,0.22807104147726576,0.7775862814194558
2.939542,0.5383081394338001,0.020366828156672543,0.23510717274217094,0.7937821403326436
2.941843,0.5460889327195753,0.020619183418836742,0.24170789001333334,0.8084160061517454
2.944145,0.5555156390069469,0.020839766579004413,0.24823860343829546,0.8245940090242467
2.946447,0.5635264434261098,0.021082138325105748,0.25445305835240906,0.8390616401036246
2.948748,0.5720235213827063,0.021325140609063688,0.26036217734160616,0.8537108393333761
2.95105,0.5806676897923568,0.021558054287316004,0.26736951269814524,0.8695952567778181
2.953351,0.5872575921012807,0.021787955395809005,0.27333820942878945,0.8823837569258792
2.955653,0.5952438119971285,0.02187451423156799,0.27754340501259883,0.8946617312412952
2.957955,0.6002378037247574,0.02218337269165984,0.28527709233361404,0.9076982687500312
2.960256,0.6048501103107503,0.02242259174847817,0.29022800264787,0.9175007047070984
2.962558,0.6111237473112661,0.0225360885626664,0.2952379942223942,0.9288978300963266
2.96486,0.6147735073064519,0.022810862948620857,0.3024444185316024,0.9400287887866752
2.967161,0.6193633128033089,0.022966991127891512,0.3076450588787575,0.949975362809958
2.969463,0.622513465282314,0.02320729611101844,0.31371056943925324,0.9594313308325856
2.971764,0.6285229228289027,0.02339295447990658,0.31877765634933103,0.9706935336581402
2.974066,0.6330802267525637,0.023582606255219872,0.3238397784476215,0.9805026114554052
2.976368,0.638013382202159,0.023835066607026837,0.3290141052923041,0.99086255410149
2.978669,0.6423415083661042,0.023988987903799382,0.33418346732519943,1.000513963595103
2.980971,0.6482576280614629,0.02420449173123332,0.3393150967885116,1.0117772165812078
2.983273,0.6549129502036146,0.024393407879047244,0.3446765970375739,1.0239829551202355
2.985574,0.6578201742573208,0.024580677622457817,0.34989163533891204,1.0322924872186907
2.987876,0.665033440072672,0.0247729916687212,0.35466977020297125,1.0444762019443643
2.990177,0.6722433723933364,0.024963168892248318,0.3599131079314967,1.0571196492170816
2.992479,0.6764485759407065,0.025153346115775445,0.36527758706763136,1.0668795091241132
2.994781,0.6828747203231426,0.02534460926561116,0.3700001160396733,1.0782194456284269
2.997082,0.6898138062005061,0.02553786911865944,0.3749207410020269,1.0902724163211923
2.999384,0.6945536189582683,0.025732284957778163,0.37920984190504103,1.0994957458210874
3.001686,0.7010018477430041,0.025925860079754743,0.3847525577843383,1.1116802656070972
3.003987,0.7076117510200486,0.026119119932803032,0.3900410753001278,1.1237719462529794
3.006289,0.7132666080693312,0.026259309516254048,0.3948812703115279,1.1344071878971131
3.0085900000000003,0.7196377497894353,0.02644829572382981,0.39982622285163893,1.145912268364904
3.010892,0.726475997452524,0.02663598582581145,0.40406517915560175,1.157177162433937
3.013194,0.7325921268290895,0.026799960698408704,0.4093407881607445,1.1687328756882427
3.015495,0.7403204175735479,0.026935105979006904,0.4135966248247839,1.1808521483773389
3.0177970000000003,0.7466111387343333,0.027084088062569414,0.41783905649699776,1.1915342832939004
3.020098,0.7530735348714879,0.027216325863051064,0.4226315893152401,1.2029214500497791
3.0224,0.7596901051379059,0.027314409529633484,0.4272945405458348,1.214299055213374
3.024702,0.7641257365054996,0.02740170399289183,0.43134979881366897,1.2228772393120604
3.027003,0.7673113073655516,0.027487632290794217,0.4355118005349292,1.230310740191275
3.029305,0.7741662225020742,0.02759640007105793,0.4393078956274684,1.2410705182006003
3.031607,0.7801073434075838,0.02770814539120004,0.4432310899017614,1.2510465787005454
3.0339080000000003,0.783281663723068,0.02772604566035133,0.4478081498884365,1.2588158592718557
3.03621,0.7874831170889156,0.0277866473543469,0.4508803754223932,1.2661501398656556
3.038511,0.7917508236616626,0.027785701547562,0.4548174711696905,1.274353996378915
3.040813,0.79629646035392,0.027845497554296345,0.4584949072605141,1.2826368651687303
3.043115,0.7989528389324461,0.027860140044521867,0.4617543061988505,1.2885672851758183
3.045416,0.8037555714024212,0.027780482095304582,0.4649630640569568,1.2964991175546825
3.047718,0.8058902580624665,0.02778349466506389,0.4683103401639276,1.301984092891458
3.05002,0.8086924770335391,0.027759008778299208,0.4715444185621489,1.307995904373987
3.052321,0.8109988386699534,0.027652272731128986,0.4749190011339496,1.313570112535032
3.054623,0.8142039938112903,0.02760354616676608,0.4766904459796441,1.3184979859577004
3.056924,0.8138618939190597,0.027492956832694402,0.4801102083387089,1.3214650590904629
3.059226,0.8163657651156657,0.02745414372463251,0.4826065157053434,1.3264264245456416
3.061528,0.8179350077394663,0.02731682659141712,0.485665832728653,1.3309176670595364
3.063829,0.8172087225845847,0.027220914777451883,0.487617500242225,1.3320471376042615
3.066131,0.8191575669158422,0.02708118058245286,0.4897066930423041,1.3359454405405993
3.068433,0.8179358411131379,0.026904594952723588,0.4916593535182336,1.336499789584095
3.070734,0.8169799615117044,0.026796422680435552,0.4932520651395866,1.3370284493317266
3.073036,0.8160828347541254,0.02660123618393654,0.4947593819981989,1.3374434529362609
3.075337,0.8147106850036805,0.026410778721362042,0.4963123751252538,1.3374338388502962
3.077639,0.8129130979938356,0.026301310343479874,0.4971092274171092,1.3363236357544246
3.079941,0.8086553919051487,0.026117578618042453,0.4977953644061084,1.3325683349292996
3.082242,0.8073286610198112,0.02585853264862211,0.4983166696437708,1.331503863312204
3.084544,0.8032526303915536,0.025672594040686583,0.4998329231636001,1.32875814759584
3.086846,0.7997778788674237,0.025448683041831288,0.4998200146529532,1.325046576562208
3.089147,0.7972548400763686,0.02523146275023216,0.4997981694810893,1.3222844723076899
3.0914490000000003,0.7923546028868054,0.025021423584222092,0.4985847694802829,1.3159607959513104
3.09375,0.784664230644409,0.024794535045488408,0.4984551878926354,1.3079139535825328
3.096052,0.7833466668694602,0.024556121675931287,0.4971156816724326,1.305018470217824
3.098354,0.7772567887635529,0.024317673276493246,0.4970714948475259,1.298645956887572
3.100655,0.7726661498930242,0.024033020464118704,0.4956590058940504,1.292358176251193
3.102957,0.7664975179751419,0.02381947831001641,0.493773370377249,1.2840903666624073
3.105259,0.7610118357812133,0.023519972828130814,0.4928687816696102,1.2774005902789545
3.10756,0.7543069279055957,0.023266391520134343,0.49109137904977096,1.268664698475501
3.109862,0.748472062143227,0.022937495968154944,0.4887301145637501,1.2601396726751322
3.112163,0.7422771789546864,0.02268475537730061,0.4872729423041892,1.2522348766361762
3.114465,0.7351576676774009,0.022417407326101674,0.4848282689801423,1.2424033439836448
3.116767,0.7290298710694315,0.022105921624940652,0.4819238540845951,1.2330596467789672
3.119068,0.7218761914716064,0.02184855708980457,0.4801831910719816,1.2239079396333925
3.12137,0.7158313155439707,0.021524460631511533,0.476904429367675,1.214260205543157
3.123672,0.7087622233738228,0.021209471942258282,0.4744518123447685,1.2044235076608496
3.125973,0.7015977099182655,0.02089402786455304,0.4718159937669121,1.1943077315497306
3.128275,0.6944111120604086,0.020584398747080897,0.4687497260071001,1.1837452368145895
3.130576,0.6868474126161099,0.020280584589841864,0.4655975670033686,1.1727255642093204
3.132878,0.6797408186307355,0.01998391652831097,0.4625337816494503,1.1622585168084971
3.13518,0.6721066991111786,0.019624544979929177,0.4595121971957237,1.1512434412868315
3.137481,0.6652113653515788,0.019324373930306057,0.4564975634784994,1.141033302760384
3.139783,0.6571047229601711,0.018970782312276446,0.4535017960460666,1.1295773013185142
3.142085,0.6508723379564042,0.018631482885663117,0.4494574603641644,1.1189612812062315
3.144386,0.6414602157082872,0.01831736994343293,0.4463246641264032,1.1061022497781232
3.146688,0.6350982410985718,0.017954845705768132,0.4433070515221064,1.0963601383264463
3.148989,0.6265232427036718,0.01765677644900035,0.4397855105214027,1.083965529674075
3.151291,0.6184257674226529,0.01729498783883492,0.4364774564275513,1.072198211689039
3.153593,0.6099086884979357,0.016941151011638848,0.4324867407129516,1.0593365802225259
3.155894,0.6026279194151771,0.016607771634901392,0.4294482758991483,1.0486839669492267
3.158196,0.5942583476303498,0.01624202464819174,0.4255250816248553,1.0360254539033968
3.160498,0.5855608433057108,0.015910221616095798,0.4214589007710892,1.0229299656928958
3.162799,0.5779238069783029,0.015573023982337812,0.4181290015053738,1.0116258324660146
3.165101,0.5696496564788847,0.015225212294660374,0.4139079185238451,0.99878278729739
3.167402,0.5607038068000807,0.014843176413321859,0.4106231990453938,0.9861701822587964
3.1697040000000003,0.5528705109729888,0.014522127554669053,0.406492972119572,0.9738856106472298
3.172006,0.544434269294426,0.014180446096153015,0.4022167797272048,0.9608314951177838
3.174307,0.535425916590245,0.013825243103600974,0.3984326001829551,0.9476837598768012
3.176609,0.5266688260480796,0.013461773059151274,0.3937949694924753,0.9339255685997062
3.1789110000000003,0.5187134409780846,0.013136765823954248,0.3899775257092509,0.9218277325112898
3.181212,0.5109072297953228,0.012795014305676368,0.3857003403545263,0.9094025844555254
3.183514,0.5019217948671133,0.01243466192062875,0.38161827210304095,0.8959747288907829
3.1858150000000003,0.4935293053063144,0.012084923589500586,0.3770903637530596,0.8827045926488746
3.188117,0.4857805969068995,0.011733433764326309,0.3726379205422447,0.8701519512134704
3.190419,0.4770064222044645,0.011423454348044948,0.3687767864152924,0.8572066629678018
3.19272,0.4683135014350198,0.011110532421766113,0.363921200487352,0.8433452343441379
3.1950220000000003,0.4601518563812803,0.010737499219824623,0.35919668559059514,0.8300860411917002
3.197323,0.4518418708139792,0.010438834455081165,0.3544120964712124,0.8166928017402727
3.199625,0.4436068888771305,0.010066712030043657,0.34966672936494914,0.8033403302721234
3.201927,0.4351577299066565,0.00978279484516848,0.3450464755157248,0.7899870002675498
3.204228,0.42700025172127537,0.009460379821159704,0.3404639542360836,0.7769245857785188
3.20653,0.41878943762090587,0.009147983343094706,0.3358302953950337,0.7637677163590342
3.208832,0.410066932086116,0.008833905430745437,0.3303511291066133,0.7492519666234747
3.211133,0.4020440437487137,0.00851744548649345,0.3259870595456115,0.7365485487808187
3.213435,0.3940899087392261,0.008208096608068689,0.32051285806897845,0.7228108634162733
3.215736,0.3855465785438505,0.0079007444328565,0.315528683515748,0.708976006492455
3.218038,0.3777407840479245,0.007603165594421629,0.3110812051167203,0.6964251547590664
3.22034,0.3699054047866533,0.007304956218130158,0.3054238020851373,0.6826341630899208
3.222641,0.3614758300974641,0.007054142270726547,0.3008174497089172,0.6693474220771078
3.224943,0.3536671187936872,0.006756283193244299,0.29537055469711404,0.6557939566840455
3.227245,0.3458250725430425,0.006462767820996414,0.2901594882452057,0.6424473286092446
3.229546,0.33822137116250234,0.006219450268110174,0.2853664589457847,0.6298072803763972
3.231848,0.33016306444405297,0.005954133950004735,0.2803544814465456,0.6164716798406032
3.234149,0.3229964675543166,0.005694842771417929,0.2750411398718197,0.6037324501975543
3.236451,0.3151819226348378,0.005453802160791639,0.2700321412596529,0.5906678660552823
3.238753,0.30774114580711404,0.005210204368858019,0.2649739910107921,0.5779253411867642
3.241054,0.3005732988568701,0.005000445441895336,0.25927339411666,0.5648471384154254
3.2433560000000003,0.2933329483971888,0.004743886594020468,0.2545285234915754,0.5526053584827846
3.245658,0.2865288690546395,0.004555741103586839,0.2493963975470845,0.5404810077053108
3.247959,0.2790018380518954,0.004332390582826305,0.24419178535049965,0.5275260139852214
3.250261,0.2723786007961038,0.004129847811333613,0.2395392602246581,0.5160477088320956
3.252562,0.2659282885771888,0.003940055916496634,0.2339483856710244,0.5038167301647098
3.254864,0.2598771623470155,0.0037645562130759523,0.22871398460371595,0.4923557031638074
3.257166,0.25293515966180075,0.003589722077392793,0.2242496258446116,0.4807745075838051
3.259467,0.2473157209935651,0.003413521776353664,0.21896855554650288,0.4696977983164217
3.261769,0.2409383289709234,0.003240509194478464,0.21380614425010974,0.4579849824155117
3.264071,0.2353338910287783,0.003073171453312675,0.20911290766761265,0.4475199701497036
3.266372,0.2299052949313607,0.0029359594097400576,0.20434122705887686,0.4371824813999776
3.2686740000000003,0.2245075336597958,0.002807925194969081,0.19941216191648495,0.42672762077124987
3.270975,0.2190806043097216,0.0026562808404564787,0.19446274104576525,0.4161996261959433
3.273277,0.21406036131143427,0.0025418382194833506,0.1895128236938668,0.4061150232247844
3.275579,0.20947513936977144,0.0024174821422092143,0.1854158610070197,0.3973084825190004
3.27788,0.20486199941010688,0.002302969461474241,0.18073851182224185,0.38790348069382297
3.280182,0.20028302777098175,0.002181380744792966,0.17600903211369778,0.3784734406294725
3.282484,0.1961140759783304,0.0020924398771312667,0.1714145952857672,0.3696211111412288
3.284785,0.19184678609241892,0.001975790373660034,0.16727543169872836,0.3610980081648073
3.287087,0.18788201084933265,0.0018975686495605567,0.1626536884059678,0.35243326790486096
3.289388,0.18415766391053015,0.0018144777720128802,0.15895043529385045,0.3449225769763935
3.29169,0.1807420819170905,0.0017341542550580644,0.1549905014123317,0.3374667375844803
3.293992,0.1771389908475196,0.0016524295428663573,0.1505623857792743,0.32935380616966026
3.296293,0.1740117561444862,0.0015720359661496972,0.14702148201260032,0.3226052741232362
3.298595,0.1711466174612007,0.0014927983755034728,0.14309580533241367,0.31573522116911784
3.300897,0.16866774747474558,0.001414401501999383,0.13953355287505448,0.30961570185179943
3.3031980000000005,0.1660780387899551,0.0013681620591819578,0.13596137079412074,0.3034075716432578
3.3055,0.1643608723394287,0.001288539139845588,0.13247259755121302,0.2981220090304873
3.307801,0.16298205559961024,0.00123599431846215,0.12892821841628802,0.2931462683343604
3.310103,0.16194075519682807,0.0011645683912615964,0.12620551563215446,0.2893108392202441
3.3124050000000005,0.1610852971228337,0.0011286277334353252,0.12276936939419167,0.2849832942504607
3.314706,0.16064069226898472,0.001082037991808677,0.12048406652851583,0.2822067967893092
3.317008,0.16037984630974436,0.001031174604709509,0.11780555056928893,0.2792165714837428
3.31931,0.1593760477221884,0.0009836040264170366,0.11590253821123207,0.27626218995983753
3.321611,0.1574530379747535,0.000949239713232268,0.1140749909923416,0.2724772686803273
3.323913,0.15474124004705975,0.0008842592841214164,0.11271463256263232,0.2683401318938135
3.326214,0.15250946535426207,0.0008536781980762555,0.1114605211051704,0.26482366465750873
3.3285160000000005,0.14896887731006822,0.000820750110009301,0.1113517917270294,0.2611414191471069
3.330818,0.14458699854429885,0.0007762971911189125,0.11069842249582593,0.2560617182312437
3.3331190000000004,0.13993135652737784,0.0007555945314938379,0.11151910588426003,0.2522060569431317
3.335421,0.1358761602409127,0.0007073934153447643,0.11224247896166388,0.2488260326179213
3.3377230000000004,0.1318276309438211,0.0006764620304903805,0.11347673117197675,0.24598082414628825
3.340024,0.12885373699637948,0.000655549191579772,0.11410279393835025,0.24361208012630955
3.3423260000000004,0.12625402782752865,0.0006254585238675232,0.1149408541680398,0.241820340519436
3.344627,0.12377682458841692,0.0005997115613896387,0.11503419262964025,0.23941072877944686
3.3469290000000003,0.12122920127404704,0.0005644014414199684,0.11431578436402373,0.2361093870794907
3.349231,0.11923493807768225,0.000541211660249411,0.11298670424857415,0.2327628539865058
3.351532,0.11795820961264634,0.0005231012118125861,0.11102113526199783,0.2295024460864568
3.3538339999999995,0.11680690388520047,0.0004931506636240263,0.10877902625887112,0.22607908080769565
3.356135,0.11570185039653365,0.00046134353174658537,0.10619831709185328,0.22236151102013352
3.3584370000000003,0.11479847333641688,0.00046197406960318653,0.10431913583037528,0.21957958323639534
3.360739,0.1132208969758993,0.00042042863082934827,0.10274876586206487,0.2163900914687935
3.3630400000000003,0.11149873028334273,0.00040620649917489775,0.10204326610709523,0.2139482028896129
3.365342,0.10951488425787413,0.00038546880966890086,0.10222199933143658,0.2121223523989796
3.3676440000000003,0.10846566680521083,0.0003656418970668837,0.10340263157444707,0.2122339402767248
