Wavelength,d_NH3_CH3OH_50_10K_I10m_Baselined,HNCO_NH3,H2O_CH3OH_CO_NH3_100K_NASA,all
2.85208,0.0013332789527728502,0.00033958152518239143,0.0708839103934268,0.07255677087138204
2.854382,0.0013905983875199491,0.0003540318028497272,0.07578833463372059,0.07753296482409026
2.8566830000000003,0.0014455094426558252,0.0003684820805170631,0.08081510455826446,0.08262909608143736
2.858985,0.0015037922292474124,0.00038293235818439886,0.08576625136301595,0.08765297595044777
2.861286,0.0015678551269059347,0.0003973826358517346,0.09150638332840398,0.09347162109116164
2.863588,0.0016381798115536355,0.0004118329135190704,0.09630291216211498,0.09835292488718768
2.8658900000000003,0.0017147662831905155,0.0004262831911864062,0.1010695770886468,0.10321062656302372
2.868191,0.001800986273272286,0.000440733468853742,0.10583672369110092,0.10807844343322696
2.870493,0.00189828480956568,0.0004551837465210777,0.11084759831021072,0.11320106686629748
2.872795,0.0019979917254702973,0.00046963402418841367,0.11504058721334932,0.11750821296300805
2.875096,0.002088546798852268,0.0004840843018557495,0.11986071816725027,0.1224333492679583
2.877398,0.002159353159422214,0.0004985345795230851,0.12408405265349033,0.12674194039243564
2.879699,0.002221489353391758,0.000512984857190421,0.12843069617582492,0.1311651703864071
2.882001,0.0022889239825059915,0.0005269534589355123,0.13257985257003926,0.13539573001148078
2.884303,0.002369845537443072,0.0005414037366028481,0.1364611971514857,0.13937244642553162
2.886604,0.0024584739071360647,0.0005553723383479393,0.1404923429447501,0.1435061891902341
2.888906,0.0025461389249845693,0.0005698226160152752,0.14466943654245465,0.1477853980834545
2.891208,0.0026280238317661388,0.0005837912177603664,0.14850357688352106,0.15171539193304756
2.893509,0.002698830192336084,0.0005982414954277022,0.1522779894102292,0.15557506109799302
2.895811,0.0027571129789276715,0.0006122100971727934,0.15606926059421586,0.15943858367031633
2.898112,0.0028149140895970147,0.0006266603748401294,0.1605719671153577,0.16401354157979486
2.900414,0.002892463913078384,0.0006406289765852206,0.16439310220652353,0.16792619509618714
2.902716,0.0029921708289830005,0.0006545975783303121,0.16888762023698722,0.17253438864430054
2.905017,0.003067793948775391,0.0006685661800754033,0.17285614816035985,0.17659250828921064
2.907319,0.00306442221731968,0.0006830164577427389,0.1771209067759129,0.18086834545097533
2.909621,0.0029955425604387127,0.0006998751150212974,0.181427089520779,0.18512250719623896
2.911922,0.002968568708793018,0.0007793516421916442,0.18604587993918176,0.18979380029016646
2.9142240000000004,0.003087060985665173,0.0008660533081956593,0.1907614872179557,0.1947146015118165
2.916525,0.003345239279988239,0.0009527549741996743,0.1958850740028707,0.20018306825705864
2.918827,0.0036631453886696265,0.0010389749642814444,0.20081791712257688,0.20552003747552794
2.921129,0.003982978201039993,0.001123749926596481,0.20559517891939813,0.2107019070470346
2.92343,0.00435724039262399,0.0012094882407560068,0.21058678650161816,0.21615351513499814
2.925732,0.004872151953503389,0.0012995616382157336,0.2159309808589212,0.2221026944506403
2.928034,0.005605262707159558,0.0013862633042197481,0.22165666254664185,0.2286481885580212
2.930335,0.006617745495717553,0.0014671848591568284,0.22610686639225905,0.23419179674713345
2.932637,0.007966438078002229,0.0015938656267071394,0.2330487797836472,0.2426090834883565
2.9349380000000003,0.009654712185469295,0.0018530072728746945,0.23856445076926924,0.25007217022761324
2.93724,0.0116300651425941,0.0020952902617636915,0.24418753548555186,0.25791289088990965
2.939542,0.01382843405171812,0.002348170120942068,0.2501400865326497,0.2663166907053099
2.941843,0.01609953602510106,0.0026005683041982,0.2561066061814927,0.2748067105107919
2.944145,0.018253590749378587,0.002852484811532088,0.2617778584899997,0.2828839340509104
2.946447,0.020137425281276933,0.00309428612449884,0.2673041263459112,0.290535837751687
2.948748,0.02171057884332756,0.003356317826199864,0.273414185419583,0.29848108208911045
2.95105,0.022958119481940882,0.003836067044755412,0.2791027780612909,0.30589696458798715
2.953351,0.023896424178473225,0.004338936707578698,0.2847147842313619,0.3129501451174138
2.955653,0.024591964210194318,0.0047575130840091925,0.28856722825747355,0.31791670555167706
2.957955,0.02511265588214065,0.005031105007844082,0.2950091620415719,0.3251529229315566
2.960256,0.025482582990424447,0.005320110561190799,0.30007591106766196,0.3308786046192773
2.962558,0.02569981883135673,0.005267126209743901,0.3036080406054812,0.33457498564658184
2.96486,0.025755693238337096,0.005179942867817642,0.3099377438996965,0.3408733800058512
2.967161,0.02561745224865292,0.005079272600068536,0.3152419591554532,0.34593868400417466
2.969463,0.025246080112602383,0.004980529036008407,0.3199980272116957,0.3502246363603065
2.971764,0.024620383089606745,0.0048928640181599035,0.3250903050616648,0.35460355216943146
2.974066,0.02376107324432251,0.00479363877817753,0.3302480908370592,0.35880280285955923
2.976368,0.022696569456162104,0.004694895214117403,0.33433751941691525,0.3617289840871948
2.978669,0.021483709483950383,0.004605303492579921,0.3386697126615825,0.3647587256381128
2.980971,0.020212566725147083,0.004508486632208771,0.3439917499264623,0.36871280328381817
2.983273,0.01897080619760069,0.004409743068148643,0.3483080478656955,0.3716885971314449
2.985574,0.017817192363825046,0.0043244864299113615,0.3531643045137648,0.3753059833075012
2.987876,0.016798929464200116,0.004224779514006746,0.35776623627488896,0.3787899452530959
2.990177,0.015947326433671794,0.004099543774223167,0.3623325240177672,0.3823793942256621
2.992479,0.015248896346417231,0.003951187590171853,0.3667687592616392,0.3859688431982283
2.994781,0.014678592054479713,0.003804758109809517,0.3712892877919041,0.3897726379561933
2.997082,0.014212811437669254,0.0036588103053694257,0.3758083712944023,0.39367999303744106
2.999384,0.013828915727640369,0.003512862500929335,0.3793621762487224,0.3967039544772921
3.001686,0.013505229507892043,0.003367396372411487,0.3842521502113488,0.4011247760916524
3.003987,0.013237417695124086,0.0032214485679713948,0.38923701433065744,0.40569588059375294
3.006289,0.01303270542817016,0.003062013837708457,0.3930061284222209,0.4091008476880995
3.0085900000000003,0.01289590946625272,0.003080799198675993,0.3972145309548713,0.4131912396198
3.010892,0.01281643293908237,0.003193511364481213,0.4010428911848708,0.4170528354884344
3.013194,0.012778862217147295,0.0033004434192194982,0.4050870422280359,0.42116634786440266
3.015495,0.012771155402391385,0.003407857149880027,0.4090521984199528,0.4252312109722242
3.0177970000000003,0.012784160652291987,0.003515752556462801,0.4123478250799499,0.4286477382887047
3.020098,0.012810652828015434,0.00363376315741271,0.4161940073190724,0.4326384233045005
3.0224,0.012840998411116841,0.003740695212150995,0.4191567959167984,0.4357384895400662
3.024702,0.0128621921516956,0.003847145590967036,0.4221634170234488,0.4388727547661114
3.027003,0.012863155503540091,0.003953114293860831,0.42570229002417936,0.4425185598215803
3.029305,0.012845333494417042,0.0040595646726768716,0.4280610570154108,0.4449659551825047
3.031607,0.01281643293908237,0.004177575273626781,0.4312232594449461,0.4482172676576552
3.0339080000000003,0.01278464232821423,0.0042840256524428215,0.43422313708868493,0.4512918050693421
3.03621,0.012760558532102005,0.004394811114559063,0.4362095685920214,0.4533649382386825
3.038511,0.012754296745112827,0.004553282492977512,0.4385177596114172,0.4558253388495075
3.040813,0.012771637078313629,0.004730539232363498,0.4412406735998656,0.4587428499105427
3.043115,0.012809207800248702,0.004908277647671729,0.4431389584094312,0.4608564438573517
3.045416,0.012863155503540091,0.005081680979679758,0.4450622903669537,0.4630071268501735
3.047718,0.012927700077120857,0.005258456043143499,0.4459394222213609,0.4641255783416252
3.05002,0.012997543085846313,0.005424152560395617,0.4481267125842733,0.4665484082305152
3.052321,0.013066904418649522,0.005598037568325891,0.4490476769476048,0.4677126189345802
3.054623,0.013140600834752936,0.005774330955867388,0.4507012703886703,0.4696162021792906
3.056924,0.013224412445223484,0.005950624343408885,0.4507980872490415,0.4699731240376738
3.059226,0.013320265953750146,0.0061182475643499785,0.4518043082506102,0.4712428217687104
3.061528,0.013418527841888028,0.006279127322379652,0.4530956813981478,0.4727933365624155
3.063829,0.013508601239347755,0.006431336913808923,0.4537372737265775,0.4736772118797342
3.066131,0.013581334303606678,0.006579693097860237,0.4540792636313711,0.4742402910328381
3.068433,0.013632873627286842,0.006720342467155639,0.4542613371299796,0.4746145532244221
3.070734,0.013658884127088048,0.006871107030818175,0.4542748240558024,0.4748048152137086
3.073036,0.013658402451165804,0.007009348020502354,0.4542757874076469,0.474943537879315
3.075337,0.013631428599520108,0.007160594260087134,0.4542757874076469,0.4750678102672541
3.077639,0.013580370951762191,0.007300761953460294,0.454023870900313,0.4749050038055355
3.079941,0.013513899674492446,0.0074471914338226294,0.4529868226397205,0.4739479137480356
3.082242,0.013442129962078008,0.007590249182729255,0.4530224666579666,0.4740548458027739
3.084544,0.013374213657041532,0.007733788607558124,0.4524507173382624,0.4735587196028621
3.086846,0.01331737589821668,0.007866731162097611,0.4516169363168572,0.4728010433771714
3.089147,0.013278360148514872,0.007987631818580988,0.4505630293989861,0.471829021366082
3.0914490000000003,0.013267281602303246,0.008104197391764163,0.4489999910313026,0.4703714700253701
3.09375,0.01329425545394894,0.008231359835236719,0.4480982937048608,0.4696239089940465
3.096052,0.01336650684228562,0.008354668871331317,0.4463160927925561,0.46803726850617294
3.098354,0.013469585489645948,0.00846978941674776,0.4452530340321624,0.4671924089385561
3.100655,0.013581334303606678,0.008594061804686848,0.4433436706763852,0.4655190667846787
3.102957,0.013678632839900073,0.008708218998258799,0.4420956483618496,0.4644825002000085
3.105259,0.01373691562649166,0.008785287145817925,0.4398659705177797,0.4623881732900893
3.10756,0.013731617191346971,0.008819967812219531,0.4378053609224175,0.460356945925984
3.109862,0.013662255858543759,0.008854166802698892,0.4360939663706828,0.4586103890319254
3.112163,0.013552915424194251,0.008877768922888874,0.434441817957384,0.4568725023044671
3.114465,0.013429606388099652,0.008911004561523746,0.4325006639907386,0.454841274940362
3.116767,0.013304370648316074,0.008942313496469642,0.4296794881141524,0.4519261722589381
3.119068,0.013183951667754944,0.008976994162871245,0.4270167836159846,0.4491777294466108
3.12137,0.013074611233405435,0.00901167482927285,0.4251897868429111,0.44727607290558935
3.123672,0.01298261113225673,0.009013119857039585,0.4230376588223225,0.4450333898116189
3.125973,0.01291565817906474,0.008953873718603508,0.4196977179774791,0.4415672498751474
3.128275,0.012874234049751713,0.008906187802301301,0.4178731295840168,0.4396535514360698
3.130576,0.012845333494417042,0.00885079507124318,0.4150240165039404,0.4367201450696006
3.132878,0.012815951263160123,0.00879540234018506,0.4122818354786024,0.4338931890819476
3.13518,0.012782715624525251,0.008744826368349385,0.409546879592098,0.4310744215849726
3.137481,0.012748516634045892,0.008687506933602285,0.4068205938721939,0.4282566174398421
3.139783,0.012716244347255507,0.008631150850699676,0.4041834181979052,0.4255308133958604
3.142085,0.012682527032698392,0.008583946610319712,0.4010486712959378,0.4223151449389559
3.144386,0.012643511282996586,0.008529035555183837,0.3975608559429651,0.4187334027811456
3.146688,0.012594862014849887,0.008478941259270406,0.3949443923333328,0.41601819560745307
3.148989,0.01253417084864708,0.008422103500445552,0.39245171943571744,0.4134079937848101
3.151291,0.012460956108465909,0.008365747417542944,0.3885756732894157,0.4094023768154245
3.153593,0.012376181146150873,0.008319506529007467,0.3860916705584007,0.4067873582335591
3.155894,0.012286589424613392,0.008265077149793836,0.3824449021510874,0.4029965687254946
3.158196,0.012196516027153664,0.008210647770580205,0.3797162080515721,0.400123371849306
3.160498,0.012106442629693938,0.008159590122822285,0.3762823404018909,0.3965483731544071
3.162799,0.012010589121167276,0.008103234039919674,0.3731789024348694,0.3932927255959564
3.165101,0.011905583770117968,0.008047841308861554,0.3701804698188973,0.3901338948978768
3.167402,0.011789499872857035,0.008005453827704035,0.3660862244798188,0.3858811781803798
3.1697040000000003,0.01166089240161775,0.007963548022468764,0.3630588913085119,0.3826833317325984
3.172006,0.01152361476377806,0.00793031238383389,0.3596717462232884,0.3791256733709004
3.174307,0.011386818801860614,0.007898040097043505,0.35578028644747484,0.37506514534637897
3.176609,0.011261583062077038,0.007865286134330879,0.3527413930540341,0.3718682622504421
3.1789110000000003,0.01114790754442733,0.00783253217161825,0.3493027086451305,0.368283148361176
3.181212,0.011037122082311087,0.0078002598848278685,0.34585390904185964,0.3646912910089986
3.183514,0.0109215198609724,0.007768469273959728,0.34198942311769176,0.3606794122526239
3.1858150000000003,0.010802545908178005,0.007746793857458725,0.3382005603133164,0.3567499000789531
3.188117,0.010685980334994828,0.007714039894746098,0.33494924783816576,0.3533492680679067
3.190419,0.010576158224723077,0.007681285932033469,0.3303800700397542,0.3486375141965108
3.19272,0.01047452460512948,0.007648531969320842,0.3266721287903158,0.34479518536476617
3.1950220000000003,0.010382524503980776,0.007615778006608216,0.3233239994547941,0.3413223019653831
3.197323,0.010298231217587984,0.007583024043895586,0.3198809799625903,0.3377622352240739
3.199625,0.010219718042262124,0.0075502700811829575,0.31549387566278714,0.33326386378623224
3.201927,0.010143613246547492,0.007538709859049087,0.3112209285565559,0.3289032516621525
3.204228,0.010074733589666523,0.007586395775351297,0.3069744736260482,0.32463560299106603
3.20653,0.010021749238219626,0.007637453423109218,0.3031648987570162,0.32082410141834505
3.208832,0.009990921979195976,0.007679840904266735,0.2991457948618079,0.31681655774527057
3.211133,0.009976953377450885,0.007733788607558124,0.2947683240804496,0.3124790660654586
3.213435,0.009970209914539462,0.007775694412793397,0.2903243820218216,0.30807028634915445
3.215736,0.009966838183083748,0.00781856356987316,0.2863115399136025,0.3040969416665594
3.218038,0.009970691590461706,0.007869139541708835,0.28137725176612954,0.2992170828983001
3.22034,0.009986105219973531,0.007913453726555329,0.27726036765870554,0.2951599266052344
3.222641,0.010012115719774737,0.007954396179946114,0.2727701847115421,0.2907366966112629
3.224943,0.010039089571420428,0.008010270586926483,0.2676494879821605,0.28569884814050744
3.227245,0.010060764987921432,0.008051213040317267,0.2631193259334507,0.28123130396168944
3.229546,0.01007858699704448,0.008095045549241519,0.2581546922028764,0.2763283247491624
3.231848,0.010096890682089773,0.008145621521077194,0.2537300171811381,0.2719725293843051
3.234149,0.01011904777451302,0.008187527326312467,0.24895564543985044,0.26726222054067594
3.236451,0.010141686542858512,0.008239548325914876,0.2440748233197466,0.26245605818852
3.238753,0.010159508551981559,0.008281935807072394,0.2390239695990905,0.2574654139581445
3.241054,0.01016817871858196,0.00832287826046318,0.2339297650454324,0.2524208220244775
3.2433560000000003,0.010164806987126249,0.00838886786181068,0.22947763449612624,0.2480313093450632
3.245658,0.010146021626158713,0.008455820815002669,0.22429624660054187,0.2428980890417033
3.247959,0.01011904777451302,0.00852084706450568,0.2190768063071002,0.2377167011461189
3.250261,0.010096409006167529,0.008590690073231136,0.21391420377248332,0.232601302851882
3.252562,0.010089183867333859,0.008652826267200679,0.20905650209664725,0.2277985122311818
3.254864,0.01009448230247855,0.008725077655537358,0.2047156386853796,0.2235351986433955
3.257166,0.010105079172767928,0.008787695525429148,0.19975100495480527,0.2186437796530024
3.259467,0.01011712107082404,0.008848386691631956,0.1948104550203432,0.2137759627827992
3.261769,0.010126272913346687,0.008923528135502104,0.18992818787247265,0.20897798892132144
3.264071,0.010130607996646888,0.008984219301704914,0.18518030830690835,0.20429513560526014
3.266372,0.010130607996646888,0.009046837171596702,0.180262878816714,0.1994403239849576
3.2686740000000003,0.010128199617035668,0.00911764353216665,0.17578570111945108,0.19503154426865335
3.270975,0.01012675458926893,0.00917833469836946,0.17117654421949322,0.1904816335071316
3.273277,0.010124346209657707,0.009252031114472871,0.16648116732945356,0.18585754465358412
3.275579,0.01011712107082404,0.009310795576986705,0.1618907957904632,0.18131871243827394
3.27788,0.01010218911723446,0.00930501546591977,0.15766023616538954,0.17706744074854378
3.280182,0.010078105321122235,0.009292010216019166,0.1532158124308393,0.1725859279679807
3.282484,0.01004486968248736,0.009283821725341007,0.14886049874190427,0.16818919014973266
3.284785,0.010002963877252087,0.009272743179129388,0.14469785542186708,0.16397356247824854
3.287087,0.009953832933183145,0.009252512790395115,0.1407929087202307,0.15999925444380894
3.289388,0.009899403553969515,0.009244805975639205,0.13655608730816785,0.15570029683777656
3.29169,0.009837267359999971,0.009237099160883291,0.13295555978939005,0.1520299263102733
3.293992,0.00976260759205207,0.00921686877214902,0.12910937755026747,0.14808885391446855
3.296293,0.0096720525186701,0.009206753577781885,0.12544864054120905,0.14432744663766106
3.298595,0.00956993722315426,0.009195675031570262,0.12189628061465567,0.1406618928693802
3.300897,0.009463486844338221,0.009184114809436391,0.11842580559488385,0.13707340724865846
3.3031980000000005,0.009355591437755443,0.009167256152157835,0.11507863961120665,0.13360148720111992
3.3055,0.009243842623794714,0.009160031013324164,0.11215390341133788,0.13055777704845675
3.307801,0.009124868671000316,0.009150879170801521,0.10883708301076207,0.12711283085256392
3.310103,0.009003486338594695,0.009129685430222759,0.10598893328253016,0.12412210505134764
3.3124050000000005,0.008894627580167432,0.009122941967311341,0.10330166331232796,0.12131923285980672
3.314706,0.00880937094193015,0.009106564985955024,0.1012208233282316,0.11913675925611678
3.317008,0.008738564581360206,0.009095004763821156,0.0989111872810691,0.11674475662625045
3.31931,0.008661014757878838,0.009084407893531777,0.09733610701532948,0.11508152966674012
3.321611,0.008563716221585442,0.009073811023242395,0.09604955062701437,0.1136870778718422
3.323913,0.008453412435391446,0.009054543986352614,0.09508860716213652,0.11259656358388058
3.326214,0.00834310864919745,0.009047800523441191,0.0949108687468283,0.11230177791946694
3.3285160000000005,0.008238103298148142,0.009039612032763034,0.09495807298720826,0.11223578831811944
3.330818,0.008134542974865568,0.009018418292184277,0.0961873099407763,0.11334027120782615
3.3331190000000004,0.008029537623816259,0.009009748125583876,0.09742521706094473,0.11446450281034487
3.335421,0.007927422328300423,0.00900300466267245,0.09870262160673722,0.11563304859771008
3.3377230000000004,0.007839275634529675,0.008984219301704914,0.09995979576379542,0.11678329070003003
3.340024,0.007774249385026664,0.008973622431415536,0.10118951439328573,0.11793738620972792
3.3423260000000004,0.007732343579791389,0.008963025561126155,0.10179690773123604,0.1184922768721536
3.344627,0.007709704811445895,0.008950983663070042,0.10186723241588376,0.11852792089039968
3.3469290000000003,0.007704888052223451,0.008936051709480463,0.10122323170784282,0.11786417146954675
3.349231,0.007719820005813031,0.008928826570646795,0.09949546017475172,0.11614410675121155
3.351532,0.00775690905182586,0.008918229700357414,0.0973890913667764,0.11406423011895965
3.3538339999999995,0.007813746810650715,0.008899444339389877,0.09515556011532852,0.11186875126536913
