Wavelength,H2O_NH3_CO2_CH4_10_1_1_1_72K_b,H2O_CH4_10_0.6_a_V3,HNCO_NH3,all
2.85208,0.16699825693153994,0.15918971563608336,0.0003514713713205672,0.3265394439389439
2.854382,0.17651141538194998,0.16579799543657248,0.0003664275998873999,0.3426758384184099
2.8566830000000003,0.1851760571316684,0.17260141067783893,0.0003813838284542325,0.3581588516379615
2.858985,0.1955103125303975,0.17939890275226894,0.0003963400570210652,0.37530555533968746
2.861286,0.2046286265466432,0.18664523924696927,0.0004112962855878978,0.3916851620792003
2.863588,0.2146856931759336,0.19422656373275105,0.00042625251415473047,0.40933850942283934
2.8658900000000003,0.22498006529848455,0.20138536898420206,0.0004412087427215631,0.42680664302540827
2.868191,0.2358662055313298,0.2091371490489428,0.0004561649712883958,0.44545951955156105
2.870493,0.24677178886131196,0.2169817253941206,0.0004711211998552283,0.4642246354552878
2.872795,0.2578284300998191,0.22471968473624301,0.000486077428422061,0.4830341922644841
2.875096,0.26928340555915625,0.23251621761708105,0.0005010336569888936,0.5023006568332262
2.877398,0.28059779246996513,0.24056547228293926,0.0005159898855557263,0.5216792546384601
2.879699,0.29300099282043945,0.2485689869382274,0.000530946114122559,0.5421009258727894
2.882001,0.3051150394186217,0.2565037270452483,0.0005454038017371638,0.5621641702656072
2.884303,0.31759750778050017,0.2638932067384952,0.0005603600303039965,0.5820510745492994
2.886604,0.3296906156586888,0.2724544862708787,0.0005748177179186012,0.6027199196474861
2.888906,0.3426177825499545,0.2808443230298306,0.0005897739464854341,0.6240518795262705
2.891208,0.3560280356239289,0.2886981131900873,0.000604231634100039,0.6453303804481162
2.893509,0.3678499372241056,0.2965479545724529,0.0006191878626668716,0.6650170796592254
2.895811,0.3813574057837645,0.3044099713533157,0.0006336455502814765,0.6864010226873617
2.898112,0.3947686559396433,0.3124559353709315,0.000648601778848309,0.7078731930894231
2.900414,0.4078817786060899,0.31996980156774296,0.000663059466462914,0.728514639640296
2.902716,0.42079448780974105,0.32790388354511546,0.0006775171540775187,0.7493758885089341
2.905017,0.434468967588396,0.3352153748750163,0.0006919748416921238,0.7703763173051045
2.907319,0.4470885347121373,0.3429928219960481,0.0007069310702589566,0.7907882877784445
2.909621,0.4607350961974676,0.34959287517593113,0.0007243800035869277,0.8110523513769855
2.911922,0.474355733553282,0.355517358271639,0.0008066392607045074,0.8306797310856255
2.9142240000000004,0.4880137614805136,0.3638871220763119,0.0008963766321055033,0.852797260188931
2.916525,0.5022765195827975,0.3705296246185225,0.0009861140035064993,0.8737922582048264
2.918827,0.5164944089993809,0.3774212292326867,0.0010753528339552674,0.8949909910660229
2.921129,0.5310213938063454,0.3841213181191402,0.001163096041547352,0.916305807967033
2.92343,0.5478621071725989,0.3903584127978809,0.0012518363310438925,0.9394723563015236
2.925732,0.5629913294498546,0.3967524713977865,0.0013450634891104829,0.9610888643367516
2.928034,0.5800175000503369,0.4025775769165724,0.0014348008605114787,0.9840298778274208
2.930335,0.594744898320097,0.4079495601723729,0.0015185557404857415,1.0042130142329555
2.932637,0.6081835682283484,0.4144680052758431,0.0016496720109216412,1.0243012455151128
2.9349380000000003,0.6210185050434519,0.4196037199878356,0.001917887043220173,1.0425401120745077
2.93724,0.6334007666739327,0.4249615534561935,0.0021686531421907336,1.0605309732723172
2.939542,0.6440535897411352,0.4301337943636773,0.0024303871421103053,1.076617771246923
2.941843,0.6533628449420843,0.4332187770909746,0.002691622601077649,1.0892732446341364
2.944145,0.6646413369043327,0.4390244677851301,0.0029523595190927648,1.1066181642085555
2.946447,0.6742257867109113,0.4449953490210566,0.003202627077111097,1.1224237628090792
2.948748,0.6843920338087396,0.4470378543851457,0.003473833355122997,1.1349037215490083
2.95105,0.6947342658627044,0.4529409482672776,0.003970380143541841,1.1516455942735238
2.953351,0.7026186910221864,0.4572253722789482,0.004490856897667615,1.1643349201988022
2.955653,0.7121737269125835,0.4617427741861842,0.004924088985153535,1.1788405900839214
2.957955,0.7181487402250332,0.464833680080318,0.0052072602460189,1.18818968055137
2.960256,0.7236670900252422,0.4693566760895663,0.0055063848173555535,1.1985301509321642
2.962558,0.7311731226019833,0.4720589564262666,0.0054515453126105,1.2086836243408603
2.96486,0.7355398428025461,0.4761219198112203,0.005361309400257278,1.2170230720140238
2.967161,0.7410312713913348,0.4790476351635831,0.005257114341241676,1.2253360208961597
2.969463,0.7448002409901767,0.4812717843106554,0.0051549134460349855,1.2312269387468668
2.971764,0.7519901986032054,0.4851481679402621,0.005064178992729535,1.242202545536197
2.974066,0.7574427409977204,0.4888563994446795,0.0049614795565706155,1.2512606199989706
2.976368,0.7633449673311448,0.491760067453818,0.004859278661363927,1.2599643134463268
2.978669,0.7685233122019345,0.4950806605952747,0.0047665500442495646,1.2683705228414588
2.980971,0.7756015966416642,0.4985345249905508,0.004666343312851786,1.2788024649450669
2.983273,0.7835642927306458,0.501149274084002,0.004564142417645096,1.289277709232293
2.985574,0.7870426129543389,0.5024912004372734,0.004475900669100783,1.2940097140607132
2.987876,0.7956728553783535,0.5066663749272945,0.004372702691989638,1.3067119329976378
2.990177,0.8042991094747504,0.5101419576009708,0.004243082044410422,1.3186841491201315
2.992479,0.8093303847646328,0.512039674442392,0.004089531431124274,1.3254595906381492
2.994781,0.8170188833298894,0.5149996125364762,0.003937974981647036,1.3359564708480125
2.997082,0.8253210858073381,0.5171872354880573,0.0037869170731220257,1.3462952383685174
2.999384,0.8309919891389288,0.5200283811805891,0.003635859164597017,1.354656229484115
3.001686,0.8387069103746533,0.5231465994551352,0.003485299797024235,1.3653388096268129
3.003987,0.8466152654998422,0.5253385002494315,0.003334241888499225,1.375288007637773
3.006289,0.853380964762525,0.5272026524787796,0.003169224833311838,1.3837528420746166
3.0085900000000003,0.8610036559220875,0.5298684066199889,0.0031886679304487203,1.3940607304725248
3.010892,0.8691852114890972,0.5322301048635956,0.003305326513270015,1.4047206428659629
3.013194,0.8765027955858962,0.5339471651165063,0.0034160026046645762,1.413865963307067
3.015495,0.8857492346268644,0.5364707632536415,0.0035271772370113657,1.4257471751175173
3.0177970000000003,0.8932757073826466,0.538323069149317,0.003638850410310383,1.4352376269422742
3.020098,0.9010075790107468,0.5401118655339131,0.0037609929436061827,1.4448804374882662
3.0224,0.9089239107911716,0.5408588426849494,0.003871669035000744,1.4536544225111216
3.024702,0.914230879227636,0.5408752959261617,0.003981846585443079,1.4590880217392408
3.027003,0.9180422248074172,0.5415709389646157,0.004091525594933185,1.4637046893669658
3.029305,0.926243722012516,0.5446193954964218,0.004201703145375518,1.475064820654313
3.031607,0.9333519189093792,0.5457668445385643,0.004323845678671319,1.4834426091266149
3.0339080000000003,0.93714980388345,0.5460873536773789,0.004434023229113652,1.4876711807899428
3.03621,0.9421765923047628,0.546360148416678,0.0045486876481260355,1.4930854283695667
3.038511,0.9472826487374792,0.5456138293952905,0.004712707621408967,1.4976091857541791
3.040813,0.952721231985332,0.5466536742399047,0.004896170691828781,1.5042710769170653
3.043115,0.955899430555784,0.546353238055369,0.005080132303200822,1.5073328009143536
3.045416,0.9616456135711609,0.5453719667494702,0.005259607046002815,1.512277187366634
3.047718,0.9641996388694236,0.5445437105868455,0.0054425715754704,1.5141859210317397
3.05002,0.9675523267731556,0.5435598067623527,0.005614069663036748,1.516726203198545
3.052321,0.970311750943736,0.5423735280709494,0.005794042946790968,1.5184793219614765
3.054623,0.974146527948272,0.5409035955010466,0.005976508935306326,1.521026632384625
3.056924,0.9737372258264929,0.5375481214882198,0.006158974923821684,1.5174443222385348
3.059226,0.9767329584084296,0.536480635198369,0.006332467175196943,1.5195460607819955
3.061528,0.9786104636345192,0.5347701562419431,0.006498979853241014,1.5198795997297034
3.063829,0.9777415067547864,0.5318730695292897,0.006656518794144984,1.516271095078221
3.066131,0.9800731827883556,0.5301227737291303,0.006810069407431132,1.5170060259249172
3.068433,0.9786114607164236,0.5265823652850777,0.006955643365481636,1.5121494693669832
3.070734,0.9774678077720133,0.5236678381367393,0.0071116866835289234,1.5082473325922814
3.073036,0.9763944491018668,0.5204430028591379,0.007254767936818291,1.5040922198978233
3.075337,0.9747527537461808,0.5173701955303376,0.0074113097958178045,1.4995342590723362
3.077639,0.9726020480782704,0.5140953423994508,0.007556385212916079,1.494253775690637
3.079941,0.9675079566284072,0.5095081787494747,0.007707941662393318,1.4847240770402752
3.082242,0.9659206022365141,0.5062353000075335,0.007856008325204963,1.4800119105692524
3.084544,0.961043874641822,0.5023546385352116,0.008004573528968833,1.4714030867060024
3.086846,0.9568865416411948,0.498669112503667,0.008142170831783693,1.4636978249766457
3.089147,0.9538678761754557,0.4943277602774021,0.008267304610792859,1.4564629410636505
3.0914490000000003,0.9480050345772574,0.49014337197230196,0.008387951521231975,1.4465363580707913
3.09375,0.938803962762942,0.4844357425957716,0.008519566332620104,1.4317592716913337
3.096052,0.9372275762719978,0.4808400512612458,0.008647192816390408,1.426714820349634
3.098354,0.9299414002551891,0.4763966889394649,0.008766344103972841,1.415104433298627
3.100655,0.924448974584496,0.4715607522823596,0.008894967669647603,1.4049046945365031
3.102957,0.9170685743277164,0.4667077042543936,0.00901312187532558,1.3927894004574355
3.105259,0.910505282691638,0.461441679872,0.00909288842768202,1.38103985099132
3.10756,0.9024832602293412,0.4563378844479593,0.00912878337624242,1.3679499280535428
3.109862,0.8955021912752958,0.4510303978977108,0.00916417978385059,1.355696768956857
3.112163,0.8880903829385258,0.4455870075750492,0.00918860829050975,1.3428659988040847
3.114465,0.8795723122287624,0.4401501985488725,0.009223007616213466,1.3289455183938483
3.116767,0.872240768985301,0.4345205575356881,0.00925541277810827,1.3160167392990976
3.119068,0.8636818179174549,0.4286457632284412,0.009291307726668668,1.3016188888725648
3.12137,0.8564494843234868,0.4230641656795965,0.009327202675229069,1.2888408526783124
3.123672,0.8479917370689432,0.4171153317868946,0.00932869829808575,1.2744357671539237
3.125973,0.8394198239363392,0.41103223944590056,0.009267377760961737,1.2597194411432011
3.128275,0.8308214881332672,0.4050406271260466,0.009218022206691188,1.2450801374660048
3.130576,0.8217719727684287,0.3989400943493676,0.009160689997184996,1.2298727571149812
3.132878,0.8132693568281844,0.3926437680022628,0.009103357787678805,1.215016482618126
3.13518,0.8041355880424197,0.3863777156189885,0.009051010987694893,1.199564314649103
3.137481,0.7958857323649547,0.3800257773165862,0.008991684614379788,1.1849031942959207
3.139783,0.7861866181393639,0.3739644032539923,0.008933355322969141,1.1690843767163253
3.142085,0.7787299411168933,0.3675831781822324,0.00888449830965082,1.1551976176087764
3.144386,0.7674688980879727,0.3609716077335007,0.008827664641096857,1.1372681704625704
3.146688,0.7598571748293594,0.3546308576351229,0.00877581638206517,1.1232638488465476
3.148989,0.7495977005734643,0.3486494463248205,0.008716988549702294,1.106964135447987
3.151291,0.7399095542488224,0.3417295421357714,0.008658659258291648,1.0902977556428854
3.153593,0.7297193771852871,0.3355052809851761,0.00861079932687778,1.073835457497341
3.155894,0.7210083711270115,0.32909082036616744,0.008554464199276047,1.058653655692455
3.158196,0.7109946775605649,0.32257336245716983,0.008498129071674309,1.042066169089409
3.160498,0.700588632264715,0.3161289569391547,0.00844528373073817,1.0251628729346078
3.162799,0.6914513736922846,0.309860930166935,0.008386954439327519,1.0096992582985471
3.165101,0.6815518460038982,0.3030943701859841,0.00832962222982133,0.9929758384197036
3.167402,0.6708486703005204,0.2970270729565537,0.008285750626025287,0.9761614938830996
3.1697040000000003,0.6614765989395909,0.2905691757807446,0.008242377563181472,0.9602881522835168
3.172006,0.6513831388207879,0.2834182680850754,0.008207978237477756,0.9430093851433412
3.174307,0.6406051819745759,0.2773970399310394,0.008174575993678497,0.9261767978992941
3.176609,0.6301278453225574,0.2713659398322761,0.00814067520892701,0.9096344603637604
3.1789110000000003,0.6206097014626252,0.2651189732088081,0.008106774424175523,0.8938354490956087
3.181212,0.6112700352635904,0.258622246383738,0.008073372180376263,0.8779656538277046
3.183514,0.6005194981697511,0.25257074426587145,0.008040468477529232,0.8611307109131519
3.1858150000000003,0.5904783848509318,0.2461776728604386,0.008018034134678982,0.8446740918460494
3.188117,0.5812075173033046,0.2401357136224752,0.007984133349927496,0.8293273642757073
3.190419,0.5707097404722447,0.2338555114517584,0.007950232565176006,0.8125154844891791
3.19272,0.5603091791268693,0.2279826915334569,0.00791633178042452,0.7962082024407507
3.1950220000000003,0.5505442574955842,0.22165839467629128,0.007882430995673035,0.7800850831675484
3.197323,0.5406018552853061,0.21589021737209976,0.007848530210921545,0.7643406028683275
3.199625,0.530749190446429,0.2101536302910358,0.00781462942617006,0.7487174501636349
3.201927,0.5206402755581069,0.20423046345462487,0.007802664443316591,0.7326734034560484
3.204228,0.510880339336344,0.1981648115493158,0.007852019997587141,0.7168971708832471
3.20653,0.5010565898726961,0.19262039832561093,0.007904865338523281,0.7015818535368303
3.208832,0.4906206321197125,0.18654684886452,0.007948736942319325,0.6851162179265519
3.211133,0.4810217246255194,0.1813463083821512,0.008004573528968833,0.6703726065366394
3.213435,0.4715050763884438,0.17596511131127188,0.008047946591812648,0.6555181342915283
3.215736,0.4612834912449181,0.17057470042531364,0.008092316736560917,0.6399505084067927
3.218038,0.4519443235868356,0.16519547774337978,0.008144663536544833,0.6252844648667603
3.22034,0.4425697595211448,0.16016308938620022,0.008190529304149784,0.6109233782114948
3.222641,0.4324842760575774,0.1549924938028377,0.008232905285089144,0.5957096751455042
3.224943,0.4231416186128293,0.1498218982194752,0.008290736035547565,0.581254252867852
3.227245,0.4137590778919029,0.14477272755625914,0.008333112016486923,0.566864917464649
3.229546,0.4046617025956508,0.13996541953886316,0.00837847924313965,0.5530056013776536
3.231848,0.3950204191205183,0.13517291943855822,0.008430826043123564,0.5386241646022001
3.234149,0.3864460132831531,0.13042615934882335,0.008474199105967377,0.5253463717379439
3.236451,0.3770963762650738,0.12571098948221598,0.008528041528807975,0.5113354072760977
3.238753,0.3681939304811429,0.1213966205715391,0.008571913132604018,0.49816246418528604
3.241054,0.3596180290209209,0.11703980229853465,0.008614289113543377,0.4852721204329989
3.2433560000000003,0.3509553814350115,0.1126207907737478,0.00868258922399858,0.4722587614327578
3.245658,0.34281470622608445,0.108485104062636,0.008751886416358238,0.4600516967050786
3.247959,0.3338090624650423,0.1044764363736828,0.008819189444908985,0.4471046882836341
3.250261,0.32588475402938216,0.10057570194708194,0.008891477882982009,0.4353519338594461
3.252562,0.3181673400888965,0.0970000835668352,0.008955789665819388,0.4241232133215511
3.254864,0.310927528380645,0.09345473915041902,0.009030570808653552,0.4134128383397176
3.257166,0.30262183611653065,0.09009005132251337,0.00909538113244316,0.4018072685714872
3.259467,0.29589851283478713,0.08641735881911433,0.009158197292423856,0.3914740689463253
3.261769,0.2882683435609413,0.08317574123547633,0.009235969680971387,0.38068005447738906
3.264071,0.2815629677534781,0.08013781477804602,0.009298785840952086,0.3709995683724761
3.266372,0.27506797622785484,0.07719531711964676,0.009363596164741693,0.3616268895122433
3.2686740000000003,0.2686098767326965,0.07426861457281128,0.009436881684719171,0.35231537299022697
3.270975,0.26211687937088224,0.07156435984716543,0.00949969784469987,0.34318093706274755
3.273277,0.25611045797844223,0.06877421920239163,0.009575974610390718,0.3344606517912246
3.275579,0.25062451334012803,0.06641646973667582,0.009636796606562505,0.3266777796833664
3.27788,0.24510516645801456,0.06388497404375865,0.00963081411513577,0.318620954616909
3.280182,0.23962669993398375,0.061668393387643974,0.00961735350942562,0.3109124468310533
3.282484,0.2346387977069451,0.05958245146675459,0.009608878313237748,0.30383012748693744
3.284785,0.22953323981518065,0.057484992277016624,0.00959741187133651,0.2966156439635338
3.287087,0.22478962265473354,0.055651443076323186,0.009576473151342944,0.2900175388823997
3.289388,0.22033366362372184,0.05388140338670906,0.0095684964961073,0.2837835635065382
3.29169,0.21624712343831096,0.05235125195396957,0.009560519840871657,0.2781588952331522
3.293992,0.2119362398243976,0.050900734208697375,0.00953958112087809,0.2723765551539731
3.296293,0.20819468997792825,0.04964666816349949,0.009529111760881307,0.267370469902309
3.298595,0.20476672239041024,0.04870060679379496,0.00951764531898007,0.26298497450318525
3.300897,0.20180090226560726,0.04792862071611608,0.0095056803361266,0.25923520331785
3.3031980000000005,0.1987024702475118,0.04764825748585929,0.009488231402798631,0.2558389591361697
3.3055,0.19664798298338124,0.04775816513715713,0.009480753288515215,0.2538869014090536
3.307801,0.1949983109724596,0.04838832427558641,0.009471281010422886,0.2528579162584689
3.310103,0.19375245713284245,0.0499309801716472,0.009449345208524864,0.2531327825130145
3.3124050000000005,0.1927289525579189,0.05262996986010514,0.009442365635193678,0.2548012880532177
3.314706,0.19219700936189185,0.0568851071024179,0.009425415242817934,0.2585075317071277
3.317008,0.19188492272579727,0.062104404279768675,0.009413450259964469,0.2634027772655304
3.31931,0.1906839375718806,0.06744644263656284,0.009402482359015456,0.2675328625674589
3.321611,0.18838317107734956,0.07168611383213609,0.009391514458066448,0.2694607993675521
3.323913,0.1851386665602513,0.07374869215050407,0.009371572819977336,0.2682589315307327
3.326214,0.18246848122011944,0.07155646229138354,0.009364593246646149,0.2633895367581491
3.3285160000000005,0.1782323787490402,0.06535852632672799,0.009356118050458277,0.2529470231262265
3.330818,0.17298972209541313,0.05628226034440096,0.009334182248560256,0.23860616468837434
3.3331190000000004,0.1674195240361724,0.04661894271562076,0.009325208511420156,0.22336367526321327
3.335421,0.16256772348909193,0.038705920887,0.009318228938088969,0.2105918733141809
3.3377230000000004,0.15772389959724706,0.033479055218691586,0.009298785840952086,0.20050174065689075
3.340024,0.15416581282119754,0.030391110907976027,0.009287817940003074,0.19384474166917667
3.3423260000000004,0.1510554158202486,0.028282134449389488,0.009276850039054063,0.18861440030869212
3.344627,0.14809158985925458,0.02702675214489461,0.009264386515248371,0.1843827285193976
3.3469290000000003,0.1450435104773341,0.025986249170631758,0.00924893174572931,0.18027869139369515
3.349231,0.1426574934799721,0.025096457885873138,0.009241453631445894,0.17699540499729113
3.351532,0.14112996400234626,0.024484726377601584,0.009230485730496882,0.1748451761104447
3.3538339999999995,0.13975249535134093,0.02389010624019077,0.00921104263336,0.17285364422489172
3.356135,0.13843036474603293,0.023465941681738902,0.009205060141933265,0.1711013665697051
3.3584370000000003,0.13734952796160316,0.022887774785540344,0.009184619962891927,0.16942192271003545
3.360739,0.13546205191646887,0.022422806188882087,0.009174649143847372,0.16705950724919835
3.3630400000000003,0.13340158216091155,0.02201410767716973,0.009168168111468412,0.16458385794954972
3.365342,0.13102802868735525,0.021659704861457817,0.009149722096235987,0.16183745564504906
3.3676440000000003,0.12977270256964574,0.02117696676429032,0.00913825565433475,0.1600879249882708
