Wavelength,H2O_NH3_CO2_CH4_10_1_1_1_72K_b,d_NH3_CH3OH_50_10K_I10m_Baselined,CO_NH3_10K,all
2.85208,0.16586641554473666,0.001370608579256393,0.000155480886519692,0.16739250501051273
2.854382,0.17531509795419128,0.0014295328642750025,0.00016785993799418977,0.17691249075646048
2.8566830000000003,0.18392101453926213,0.0014859813389987125,0.00017726801711480806,0.18558426389537566
2.858985,0.1941852288598567,0.0015458959481352813,0.00017974382740970762,0.1959108686354017
2.861286,0.20324174291859928,0.0016117525019796095,0.0001787535032917478,0.20503224892387065
2.863588,0.21323064713440096,0.0016840461625906766,0.00017726801711480806,0.2150919613141065
2.8658900000000003,0.2234552484902772,0.0017627769299684824,0.00017825834123276786,0.2253962837614785
2.868191,0.2342676072101625,0.0018514109385258863,0.00018122931358664733,0.2363002474622751
2.870493,0.2450992772503481,0.0019514336744398285,0.00018469544799950676,0.24723540637278746
2.872795,0.2560809813944045,0.00205393222064867,0.00018717125829440626,0.2583220848733476
2.875096,0.26745832002358605,0.0021470226877368928,0.00018667609623542638,0.26979201880755826
2.877398,0.2786960229521351,0.0022198115104069397,0.0001822196377046072,0.28109805410024663
2.879699,0.29101515981749626,0.0022836874160153484,0.00017677285505582815,0.2934756200885675
2.882001,0.3030471026886491,0.002353010104272536,0.00017726801711480806,0.30557738081003644
2.884303,0.3154449703213881,0.002436197330181161,0.00018519061005848665,0.3180663582616277
2.886604,0.32745611638606376,0.0025273071490334647,0.00019410352712012505,0.33017752706221737
2.888906,0.3402956685754129,0.0026174266437678085,0.00019855998565094423,0.3431116552048316
2.891208,0.35361503279991346,0.002701604193794393,0.00020054063388686384,0.3565171776275947
2.893509,0.3653568107045041,0.00277439301646444,0.0002114341991844219,0.3683426379201529
2.895811,0.3787727315305057,0.002834307625601009,0.000238668112428317,0.3818457072685352
2.898112,0.3920930860791244,0.0028937270726785984,0.0002673875118491519,0.3952542006636521
2.900414,0.40511733371647296,0.0029734481641743643,0.000271843970379971,0.4083626258510274
2.902716,0.4179425262061117,0.003075946710383206,0.0002480761915489353,0.4212665491080438
2.905017,0.4315243263218716,0.0031536871536430515,0.0002579794327285335,0.4349359929082432
2.907319,0.44405836352083017,0.003150221019230192,0.0003743425165888125,0.4475829270566492
2.909621,0.4576124345612872,0.003079412844796065,0.000582310581360375,0.4612741579874437
2.911922,0.4711407571746773,0.00305168376949319,0.0007462092228827256,0.4749386501670532
2.9142240000000004,0.484706216942491,0.003173493636002249,0.0007382866299390469,0.4886179972084322
2.916525,0.4988723082878472,0.003438900499615481,0.0006174670875479487,0.5029286758750107
2.918827,0.5129938350478954,0.003765707458542221,0.000566465395473018,0.5173260079019106
2.921129,0.5274223622845109,0.004094495065704883,0.0007382866299390469,0.5322551439801548
2.92343,0.5441489366368523,0.004479235985532273,0.0011344162771229757,0.5497625888995075
2.925732,0.5591756196407157,0.005008564226581798,0.001708804265539672,0.5658929881328372
2.928034,0.5760863942789975,0.005762200880349222,0.0024233231166476835,0.5842719182759945
2.930335,0.5907139766633231,0.006803031528324994,0.0032492534310261745,0.6007662616226743
2.932637,0.6040615651251856,0.008189485293468744,0.004158866133372271,0.6164099165520266
2.9349380000000003,0.6168095123336234,0.009925028310193332,0.005103140179846961,0.6318376808236636
2.93724,0.6291078523925075,0.011955687914069946,0.006014238368369996,0.6470777786749475
2.939542,0.6396884752687901,0.014215607551254256,0.006830265441568889,0.6607343482616133
2.941843,0.6489346363961221,0.01655029665934454,0.007543298806499961,0.6730282318619666
2.944145,0.6601366876564245,0.0187646613871027,0.008173144945522405,0.6870744939890496
2.946447,0.6696561782403134,0.020701240199773128,0.008774271685124018,0.6991316901252106
2.948748,0.6797535229470317,0.022318439484401518,0.009525432528596544,0.7115973949600297
2.95105,0.69002565986057,0.023600909217159485,0.010624692299531946,0.7242512613772614
2.953351,0.6978566478233373,0.024565484908052358,0.012163655978841508,0.7345857887102312
2.955653,0.7073469238457462,0.025280498921219342,0.014075971850621925,0.7467033946175874
2.957955,0.7132814411226205,0.025815769106976628,0.01626904460984395,0.7553662548394409
2.960256,0.7187623899534691,0.0261960535682732,0.018472020610245568,0.7634304641319878
2.962558,0.7262175499134707,0.026419371656873136,0.02029223633905573,0.7729291579093995
2.96486,0.7305546743880756,0.026476810455714813,0.02138555416528336,0.7784170390090738
2.967161,0.7360088844677394,0.02633469894478757,0.021672748159491717,0.7840163315720187
2.969463,0.7397523096336275,0.02595292899731406,0.021157284456093627,0.7868625230870352
2.971764,0.7468935368482357,0.02530971348269916,0.01991838898452589,0.7921216393154608
2.974066,0.7523091242872991,0.024426344369479,0.01820364277427846,0.7949391114310566
2.976368,0.7581713479035622,0.0233320362191334,0.016277957526905588,0.7977813416496012
2.978669,0.7633145962101866,0.022085218154621982,0.014308698018342484,0.7997085123831509
2.980971,0.7703449071235834,0.020778485480974,0.012363701450669392,0.8034870940552267
2.983273,0.7782536355296105,0.019501957692923788,0.010506843729494723,0.8082624369520289
2.985574,0.7817083812151133,0.018316044561666897,0.00880992335337057,0.8088343491301508
2.987876,0.7902801316181146,0.01726927196898337,0.007348204955261876,0.8148976085423599
2.990177,0.7988479207246441,0.016393825448706885,0.006176156361656427,0.8214179025350073
2.992479,0.8038450962238691,0.015675840463186014,0.005275951738430949,0.8247968884254862
2.994781,0.8114814854974575,0.0150895685853538,0.004614910389692768,0.8311859644725039
2.997082,0.8197274192656498,0.014610746874320225,0.004155895161018392,0.8384940613009885
2.999384,0.8253598876865462,0.014216102713313241,0.003855331791217585,0.843431322191077
3.001686,0.8330225205492604,0.013883353809678738,0.0036696460191001186,0.8505755203780393
3.003987,0.8408772762908587,0.013608043704885909,0.003570613607304137,0.8580559336030488
3.006289,0.8475971205932751,0.013397599829819444,0.003538428073470442,0.8645331484965649
3.0085900000000003,0.855168148475078,0.013256973805069152,0.0035651668246553577,0.8719902891048026
3.010892,0.8632942530249974,0.013175272065337466,0.003688957339400335,0.8801584824297352
3.013194,0.8705622417267045,0.013136649424737034,0.003963277120075206,0.8876621682715167
3.015495,0.8797460124346049,0.013128726831793357,0.00438961165285691,0.8972643509192552
3.0177970000000003,0.8872214740390245,0.013142096207385812,0.004849617205649246,0.9052131874520596
3.020098,0.8949009424117439,0.013169330120629706,0.0052115806707635605,0.9132818532031372
3.0224,0.9027636207462859,0.013200525330345441,0.005415587439063284,0.9213797335156948
3.024702,0.9080346208641272,0.013222312460940557,0.005481939154966592,0.9267388724800344
3.027003,0.9118201348050288,0.013223302785058516,0.00543786973171738,0.9304813073218046
3.029305,0.9199660458373072,0.013204981788876259,0.005329924402859759,0.9385009520290432
3.031607,0.9270260664742426,0.013175272065337466,0.005216532291353359,0.9454178708309332
3.0339080000000003,0.9307982110395516,0.013142591369444793,0.005142257982506374,0.9490830603915028
3.03621,0.935790930080246,0.013117833266495795,0.005100664369552061,0.954009427716294
3.038511,0.940862379888318,0.013111396159729059,0.005075411104544085,0.9590491871525912
3.040813,0.9462641027897299,0.013129221993852332,0.00505659494630285,0.9644499197298853
3.043115,0.9494207609157268,0.01316784463445277,0.005048177191300191,0.96763678274148
3.045416,0.9551279988075296,0.013223302785058516,0.0050546142980669295,0.9734059158906552
3.047718,0.9576647140356837,0.013289654500961824,0.005075411104544085,0.9760297796411896
3.05002,0.9609946788823236,0.013361452999513912,0.00510611115220084,0.9794622430340384
3.052321,0.9637354008787772,0.013432756336007018,0.005143743468683314,0.9823119006834676
3.054623,0.9675441874364508,0.013508516131030945,0.005188308053991505,0.9862410116214734
3.056924,0.9671376593860284,0.013594674329293451,0.005240300070184396,0.985972633785506
3.059226,0.9701130881984386,0.013693211579030454,0.0053007098413799456,0.9891070096188491
3.061528,0.971977868512557,0.013794224639062352,0.005365080909047333,0.9911371740606666
3.063829,0.9711148010437549,0.013886819944091598,0.005429947138773703,0.9904315681266204
3.066131,0.973430673993604,0.013961589414997564,0.005504221447620688,0.9928964848562224
3.068433,0.9719788588366748,0.014014571755308416,0.00561216677647831,0.9916055973684617
3.070734,0.9708429570733748,0.01404131050649333,0.005777055742118619,0.9906613233219868
3.073036,0.9697768731603912,0.014040815344434349,0.006012257720134077,0.9898299462249596
3.075337,0.9681463045001704,0.014013086269131477,0.0063271807896453,0.9884865715589471
3.077639,0.966010175377731,0.013960599090879605,0.006703503954470032,0.9866742784230808
3.079941,0.9609506094590744,0.013892266726740377,0.007023378644571055,0.9818662548303856
3.082242,0.9593740134632822,0.013818487579952368,0.007147664321375012,0.9803401653646096
3.084544,0.9545303382023408,0.013748669729636205,0.007020407672217175,0.975299415604194
3.086846,0.9504011817925072,0.013690240606676576,0.006726776571242089,0.9708181989704259
3.089147,0.9474029755253838,0.0136501324798992,0.006365803430245733,0.9674189114355288
3.0914490000000003,0.9415798697117802,0.013638743752542662,0.006044938416026751,0.9612635518803496
3.09375,0.9324411587512468,0.013666472827845538,0.005880544612445421,0.951988176191538
3.096052,0.9308754563207524,0.013740747136692523,0.005970664107179764,0.9505868675646248
3.098354,0.9236386628287611,0.013846711817314223,0.006315296900229783,0.9438006715463051
3.100655,0.9181834624249794,0.013961589414997564,0.006876810675113001,0.93902186251509
3.102957,0.9108530833038408,0.014061612150911508,0.007599252119164691,0.9325139475739168
3.105259,0.9043342747973704,0.014121526760048075,0.00838259849647091,0.9268384000538892
3.10756,0.8963666221063246,0.014116079977399297,0.009118904478174036,0.9196016065618978
3.109862,0.8894328677944289,0.014044776640906191,0.009720031217775649,0.9131976756531108
3.112163,0.8820712934635745,0.013932374853517749,0.010117646351136515,0.9061213146682288
3.114465,0.8736109545238437,0.013805613366418891,0.010254806241473952,0.8976713741317366
3.116767,0.8663291012844851,0.013676871231084114,0.010147356074675313,0.8901533285902445
3.119068,0.857828159055918,0.013553080716339138,0.009856695946054105,0.8812379357183112
3.12137,0.8506448430662964,0.0134406789289507,0.00943481787180322,0.8735203398670504
3.123672,0.8422444187357024,0.013346102975685534,0.008904994468694716,0.8644955161800827
3.125973,0.8337306022936016,0.013277275449487327,0.008284556408792887,0.8552924341518818
3.128275,0.8251905422623752,0.013234691512415056,0.007597271470928772,0.8460225052457191
3.130576,0.816202360567772,0.013204981788876259,0.006882257457761781,0.8362895998144101
3.132878,0.8077573716518694,0.013174776903278486,0.006180117658128267,0.8271122662132763
3.13518,0.7986855075692986,0.013140610721208873,0.005509668230269467,0.8173357865207769
3.137481,0.7904915658172991,0.013105454215021298,0.004875365632716201,0.8084723856650364
3.139783,0.7808581879598449,0.013072278357069644,0.004280675999881329,0.7982111423167958
3.142085,0.7734520490436824,0.013037617012941052,0.003730550952354648,0.7902202170089779
3.144386,0.7622673284554441,0.01299750888616368,0.003230932434843918,0.7784957697764516
3.146688,0.7547071941389388,0.012947497518206707,0.0027862769058799577,0.7704409685630255
3.148989,0.7445172541271912,0.012885107098775241,0.0023941085551678685,0.7597964697811342
3.151291,0.7348947698350347,0.012809842465810291,0.0020529418965307107,0.7497575541973757
3.153593,0.7247736573494853,0.012722693943429826,0.0017578253093786837,0.7392541766022939
3.155894,0.7161216906929292,0.012630593800459566,0.0015052926592989287,0.7302575771526877
3.158196,0.7061758655762587,0.01253799849543032,0.0012889068395247078,0.7200027709112138
3.160498,0.695840347919171,0.012445403190401078,0.0011061920397611208,0.7093919431493333
3.162799,0.6867650177021872,0.012346865940664076,0.0009526918014773484,0.7000645754443287
3.165101,0.6769325846970232,0.012238920611806457,0.0008259303143784912,0.6899974356232081
3.167402,0.6663019504527834,0.012119586555592294,0.0007199656337567902,0.6791415026421325
3.1697040000000003,0.65699339890602,0.011987378285844659,0.0006293509769634666,0.6696101281688281
3.172006,0.646968347859913,0.011846257099035386,0.0005496298854677008,0.6593642348444161
3.174307,0.6362634393068262,0.011705631074285093,0.0004812975213284732,0.6484503679024398
3.176609,0.6258571134753044,0.011576888938950316,0.0004243538845457836,0.6378583562988005
3.1789110000000003,0.61640347944526,0.011460030693031056,0.00037780865100167193,0.6282413187892927
3.181212,0.6071271134323303,0.011346143419465677,0.00033869084834225896,0.6188119477001383
3.183514,0.5964494387924875,0.011227304525310495,0.0003035343421546853,0.6079802776599527
3.1858150000000003,0.586476379762573,0.011104999496742459,0.000271843970379971,0.5978532232296955
3.188117,0.5772683461137827,0.01098517027846932,0.000244114895077096,0.5884976312873292
3.190419,0.5668417186378427,0.010872273329021902,0.0002198519541870804,0.5779338439210516
3.19272,0.5565116477634038,0.01076779413457714,0.00019806482359196434,0.5674775067215729
3.1950220000000003,0.5468129085141643,0.010673218181311978,0.00017726801711480806,0.5576633947125911
3.197323,0.5369378915719278,0.010586564820990492,0.000155480886519692,0.5476799372794381
3.199625,0.5271520038003079,0.01050585340537677,0.0001341889179835558,0.5377920461236683
3.201927,0.5171116027303724,0.010427617800057942,0.00011289694944741964,0.5276521174798777
3.204228,0.5074178151017226,0.010356809625623816,9.309046708822322e-05,0.5178677151944346
3.20653,0.4976606467295234,0.010302341799136024,7.575979502392635e-05,0.5080387483236833
3.208832,0.4872954193488969,0.01027065142736131,6.140009531350895e-05,0.4976274708715717
3.211133,0.4777615690652978,0.010256291727650892,4.902104383901117e-05,0.4880668818367877
3.213435,0.4683094205214303,0.010249359458825174,3.6641992364513396e-05,0.47859542197262
3.215736,0.4581571128261651,0.010245893324412314,2.3272616772055805e-05,0.4684262787673495
3.218038,0.4488812419752944,0.010249854620884152,1.1388727356537947e-05,0.4591424853235351
3.22034,0.43957021461823614,0.010265699806771509,2.970972353879465e-06,0.4498388853973615
3.222641,0.4295530861650727,0.010292438557956429,3.4661344128593764e-06,0.439848990857442
3.224943,0.4202737491797891,0.0103201676332593,1.2379051474497771e-05,0.4306062958645229
3.227245,0.4109547992297872,0.010342449925913395,2.772907530287501e-05,0.4213249782310034
3.229546,0.40191908197752174,0.010360770922095652,4.60500714851317e-05,0.4123259029711025
3.231848,0.3923431429189093,0.01037958708033689,6.140009531350895e-05,0.4027841300945597
3.234149,0.3838268506665138,0.010402364535049969,7.031301237514731e-05,0.3942995282139389
3.236451,0.3745405814124045,0.010425637151822022,7.724528120086608e-05,0.38504346384542737
3.238753,0.36569847252520027,0.01044395814800428,8.813884649842412e-05,0.37623056951970296
3.241054,0.35718069478662784,0.010452871065065915,0.00010348887032680136,0.36773705472202056
3.2433560000000003,0.3485767588497929,0.010449404930653057,0.00011982921827313841,0.3591459929987191
3.245658,0.3404912575887099,0.01043009361035284,0.00013121794562967636,0.3510525691446925
3.247959,0.33154665015529683,0.010402364535049969,0.00013815021445539512,0.3420871649048022
3.250261,0.3236760492278112,0.010379091918277909,0.0001421115109272344,0.33419725265701633
3.252562,0.3160109405548021,0.01037166448739321,0.00014557764534009376,0.32652818268753536
3.254864,0.3088201971342959,0.01037711127004199,0.00015003410387091296,0.3193473425082088
3.257166,0.3005707972316905,0.010388004835339549,0.00015696637269663172,0.31111576843972666
3.259467,0.2938930417042874,0.010400383886814043,0.00016587928975827013,0.3044593048808597
3.261769,0.2863145863915999,0.010409791965934664,0.00017528736887888842,0.29689966572641346
3.264071,0.2796546566983201,0.010414248424465485,0.00018172447564562724,0.29025062959843123
3.266372,0.2732036853939298,0.010414248424465485,0.00018568577211746656,0.2838036195905128
3.2686740000000003,0.2667893560819041,0.010411772614170584,0.0001901422306482857,0.27739127092672305
3.270975,0.2603403654257497,0.010410287127993644,0.0001975696615329844,0.2709482222152764
3.273277,0.2543746529391597,0.010407811317698744,0.0002069777406536027,0.2649894419975121
3.275579,0.2489258896421448,0.010400383886814043,0.00021737614389218083,0.259543649672851
3.27788,0.24344395048717826,0.01038503386298567,0.0002262890609538193,0.2540552734111177
3.280182,0.238002614621048,0.010360275760036671,0.000233221329779538,0.24859611171086424
3.282484,0.233048518220954,0.010326109577967058,0.00023668746419239732,0.2436113152631135
3.284785,0.2279775635749408,0.010283030478835806,0.00023817295036933706,0.2384987670041459
3.287087,0.22326609658374685,0.010232523948819856,0.0002401535986052567,0.233738774131172
3.289388,0.21884033810058445,0.010176570636155126,0.0002456003812540358,0.2292625091179936
3.29169,0.21478149470312613,0.01011269473054672,0.00025401813625669425,0.22514820756992954
3.293992,0.2104998283791268,0.010035944611404831,0.00026243589125935266,0.220798208881791
3.296293,0.20678363712648254,0.009942854144316608,0.0002693681600850715,0.21699585943088426
3.298595,0.2033789028089367,0.00983787978781287,0.0002733294565569107,0.21349011205330648
3.300897,0.2004331837200652,0.009728448972778308,0.0002758052668518103,0.21043743795969533
3.3031980000000005,0.19735575152350507,0.009617532671566807,0.00027778591508773,0.2072510701101596
3.3055,0.19531518867844885,0.00950265507388347,0.0002812520495005893,0.2050990958018329
3.307801,0.19367669742528434,0.00938035004531543,0.0002891746424442679,0.20334622211304404
3.310103,0.19243928743989355,0.009255569206452492,0.00029858272156488616,0.20199343936791087
3.3124050000000005,0.19142271973280775,0.009143662581123032,0.00029907788362386616,0.2008654601975547
3.314706,0.19089438181587626,0.009056018896683588,0.0002837278597954889,0.2002341285723553
3.317008,0.1905844103669548,0.00898323007401354,0.0002599600809644532,0.1998276005219328
3.31931,0.18939156496687215,0.008903508982517776,0.00024213424684117637,0.1985372081962311
3.321611,0.1871063920646799,0.008803486246603834,0.0002401535986052567,0.19615003190988906
3.323913,0.18388387738483866,0.008690094135097434,0.0002490665156668952,0.19282303803560294
3.326214,0.18123178939694226,0.008576702023591034,0.0002594649189054733,0.1900679563394388
3.3285160000000005,0.17702439738178993,0.008468756694733414,0.0002673875118491519,0.1857605415883725
3.330818,0.17181727316955722,0.008362296852052734,0.00027481494273385047,0.1804543849643438
3.3331190000000004,0.16628482748457465,0.008254351523195109,0.0002847181839134487,0.17482389719168326
3.335421,0.16146591032658214,0.008149377166691372,0.00029561174921100675,0.16991089924248454
3.3377230000000004,0.15665491576153334,0.008058762509898048,0.0003025440180367255,0.16501622228946813
3.340024,0.15312094414659375,0.007991915631935761,0.0003025440180367255,0.16141540379656624
3.3423260000000004,0.15003162806061804,0.007948836532804508,0.00029907788362386616,0.15827954247704645
3.344627,0.14708788961998248,0.007925563916032451,0.00029759239744692634,0.15531104593346184
3.3469290000000003,0.14406046879137935,0.007920612295442653,0.00030105853185978575,0.1522821396186818
3.349231,0.1416906231771015,0.00793596231927103,0.0003070004765675447,0.14993358597294004
3.351532,0.14017344662838702,0.007974089797812483,0.0003114569350983638,0.14845899336129784
3.3538339999999995,0.13880531385942552,0.008032518920772112,0.0003124472592163237,0.14715028003941394
