Wavelength,H2O_NH3_CO2_CH4_10_1_1_1_72K_b,H2O_40K,CO_CH3OH_10K,all
2.85208,0.1656916724724283,0.1088372105570158,0.003605928496910215,0.27813481152635433
2.854382,0.17513040053525966,0.1129615221903817,0.003879464636662115,0.2919713873623035
2.8566830000000003,0.18372725064174794,0.11759679735424255,0.004182184559859515,0.30550623255584997
2.858985,0.19398065143906645,0.12191698658497148,0.004526454276436952,0.3204240923004749
2.861286,0.20302762430717175,0.12648548529518586,0.004909800584407516,0.3344229101867652
2.863588,0.2130060050435462,0.13119594579944868,0.005328266360592159,0.349530217203587
2.8658900000000003,0.22321983460907424,0.1362759026805554,0.005777894481811827,0.3652736317714415
2.868191,0.2340208023262939,0.14105165571727252,0.006253738544092709,0.3813261965876591
2.870493,0.24484106101901146,0.1457561805367668,0.0067503575030636075,0.39734759905884187
2.872795,0.2558111957521356,0.15082278212714414,0.0072603317527638045,0.4138943096320435
2.875096,0.26717654816276737,0.15606448641819462,0.00777376848524567,0.4310148030662077
2.877398,0.2784024119813377,0.16123248929003522,0.008283248094548484,0.4479181493659215
2.879699,0.2907085704277889,0.16659290727645715,0.008794211625043444,0.4660956893292895
2.882001,0.3027278374437589,0.17196816447480054,0.009316551884678177,0.4840125538032376
2.884303,0.3151126437133937,0.17713616734664114,0.009850268873452677,0.5020990799334875
2.886604,0.32711113583267365,0.18240656078073966,0.010382007300637652,0.5198997039140509
2.888906,0.3399371613367727,0.1875260888936369,0.010895444033119522,0.5383586942635291
2.891208,0.3532424933859343,0.19266540262242934,0.0113846433861297,0.5572925393944933
2.893509,0.3649719011290388,0.19793678533732267,0.011853067842449858,0.5747617543088114
2.895811,0.37837368805568977,0.203191350278705,0.012302695963669529,0.5938677342980643
2.898112,0.3916800093856461,0.2088905969373332,0.0127310545478018,0.613301660870781
2.900414,0.4046905357579684,0.21401358753301208,0.013131713269680713,0.6318358365606611
2.902716,0.4175022166905433,0.2187097034657509,0.013502693567716743,0.6497146137240108
2.905017,0.431069708150317,0.223635827183272,0.013853393609460135,0.6685589289430489
2.907319,0.44359054052923175,0.228578768674304,0.014195684764448047,0.6863649939679839
2.909621,0.45713033212675197,0.2331170943202781,0.014532534875064762,0.704779961322095
2.911922,0.4706444024236085,0.2383355505126516,0.014852072571773131,0.7238320255080333
2.9142240000000004,0.4841955707502687,0.24285458518312786,0.015142426485035996,0.7421925824184326
2.916525,0.4983467378789524,0.2474082446814208,0.01539320916650835,0.7611481917268815
2.918827,0.5124533873718718,0.252002464692299,0.015592549246653048,0.7800484013108242
2.921129,0.5268667139111677,0.2563938821402508,0.01573154319831721,0.7989921392497357
2.92343,0.5435756665347105,0.260456363723944,0.015813158863885138,0.8198451891225396
2.925732,0.558586518674043,0.26427251438974136,0.015842342647330636,0.838701375711115
2.928034,0.5754794775254116,0.2687371386165056,0.01582404095262753,0.8600406570945448
2.930335,0.5900916495044548,0.2714324341418367,0.01576221090295486,0.8772862945492463
2.932637,0.6034251760562671,0.27603456839907303,0.015660809621491675,0.8951205540768318
2.9349380000000003,0.6161596930868506,0.280190042377474,0.015527256714198703,0.9118769921785234
2.93724,0.6284450766366119,0.283976019979031,0.015372928910215716,0.9277940255258584
2.939542,0.6390145526478571,0.2875903573626967,0.0152087082982851,0.9418136183088388
2.941843,0.6482509727881595,0.2911537467854321,0.01504250912476496,0.9544472286983564
2.944145,0.6594412224981182,0.29426849736774263,0.014881256355218631,0.9685909762210796
2.946447,0.6689506841377751,0.2976909142772243,0.014727917832030403,0.9813695162470298
2.948748,0.6790373911211761,0.3011222347138589,0.014570622185663127,0.994730248020698
2.95105,0.6892987061648527,0.3044110987160477,0.014397498046579646,1.00810730292748
2.953351,0.6971214440494392,0.3076574236440616,0.01420805077438258,1.0189869184678833
2.955653,0.7066017219056505,0.30887968006599104,0.014023549906159326,1.029504951877801
2.957955,0.7125299870682663,0.3132409244497026,0.013864275698202526,1.0396351872161715
2.960256,0.7180051616268808,0.31661882372342,0.0137322067121017,1.0483561920624025
2.962558,0.7254524674498547,0.31822145861093565,0.013614976937922314,1.0572889029987127
2.96486,0.7297850226905181,0.3221014178879951,0.013501209646524598,1.065387650225038
2.967161,0.7352334866676741,0.3243060301391239,0.013385463793537356,1.0729249806003351
2.969463,0.7389729680718772,0.3276992632651601,0.013263287615384155,1.0799355189524216
2.971764,0.7461066718829112,0.33032085737128136,0.013134681112065,1.0895622103662577
2.974066,0.7515165539090715,0.3329988404827042,0.013007063889540605,1.097522458281316
2.976368,0.7573726015736695,0.3365637138266317,0.012889339474963835,1.1068256548752649
2.978669,0.76251043138127,0.33873716373272544,0.012778540025950408,1.1140261351399456
2.980971,0.7695333357432906,0.3417801914574157,0.012662299532565787,1.123975826733272
2.983273,0.7774337321702659,0.3444477871204935,0.012528251984875435,1.1344097712756351
2.985574,0.7808848382227958,0.3470921346848943,0.012373924180892448,1.1403508970885825
2.987876,0.7894475581418647,0.34980771046651804,0.012200305401411584,1.1514555740097945
2.990177,0.7980063209377546,0.3524931131839015,0.012010363488817136,1.1625097976104732
2.992479,0.8029982318281274,0.35517851590128496,0.011812012689467207,1.1699887604188794
2.994781,0.8106265760365431,0.3578792524709873,0.011613167249719893,1.1801189957572502
2.997082,0.8188638225741349,0.3606081835433403,0.011417289652356869,1.190889295769832
2.999384,0.824490357094348,0.36335343774880696,0.011216960291417414,1.1990607551345724
3.001686,0.8321449172438249,0.3660868205847364,0.011005254201338186,1.209236992029899
3.003987,0.8399913978674856,0.3688157516570894,0.010781182101324423,1.2195883316258993
3.006289,0.8467041627003482,0.3707953025274097,0.010548701114555177,1.228048166342313
3.0085900000000003,0.8542672143763096,0.37346388747128223,0.010311273723812115,1.2380423755714038
3.010892,0.8623847579377353,0.3761141707204516,0.010067910648300482,1.2485668393064873
3.013194,0.869645089690499,0.3784295824205939,0.009819106528417651,1.2578937786395106
3.015495,0.8788191851407314,0.3803379050736912,0.00956337744297148,1.2687204676573942
3.0177970000000003,0.8862867712199979,0.38244161068375415,0.009298744830372446,1.2780271267341246
3.020098,0.8939581491429855,0.3843088781838688,0.00902323012903102,1.287290257455885
3.0224,0.9018125440130044,0.3856938712965367,0.008740790462126256,1.2962472057716674
3.024702,0.9070779910431293,0.38692651516681104,0.008459834716413636,1.302464340926354
3.027003,0.91085951688111,0.3881398680615876,0.008188277138251262,1.3071876620809488
3.029305,0.9189968460584308,0.3896757264954568,0.007923644525652225,1.3165962170795398
3.031607,0.9260494288442944,0.3912536293631033,0.007657033351463666,1.3249600915588613
3.0339080000000003,0.9298175993915456,0.3915063906061652,0.0073844864925065295,1.3287084764902175
3.03621,0.9348050585183422,0.392362118493635,0.007116886037523206,1.3342840630495003
3.038511,0.9398711654683221,0.3923487632029057,0.0068700604792299,1.3390899891504575
3.040813,0.9452671975633554,0.3931931143612357,0.006646977660010901,1.3451072895846021
3.043115,0.9484205300966616,0.39339987404734106,0.00643477692953429,1.3482551810735373
3.045416,0.9541217553168796,0.3922750617836959,0.006218619075878631,1.3526154361764542
3.047718,0.9566557980726642,0.39231760085787065,0.006002461222222971,1.3549758601527575
3.05002,0.959982254745054,0.391971847220101,0.005802131861283514,1.3577562338264386
3.052321,0.96272008934456,0.39046467792928,0.00563098628378956,1.3588157535576295
3.054623,0.9665248632812176,0.38977663313652255,0.0054796263221908595,1.3617811227399308
3.056924,0.9661187635149674,0.3882150534019896,0.005331234202976446,1.3596650511199335
3.059226,0.969091057662832,0.38766699184169107,0.005178884960582985,1.3619369344651058
3.061528,0.9709538733993704,0.385728001483956,0.005037417806931911,1.3617192926902582
3.063829,0.9700917151867346,0.3843736760759258,0.0049251344367263385,1.3593905256993868
3.066131,0.9724051483252872,0.3824005555307715,0.004840550928774124,1.359646254784833
3.068433,0.9709548626801651,0.37990707328757206,0.004761903105590486,1.3556238390733275
3.070734,0.969820157608572,0.3783796237404583,0.0046679214300880244,1.3528677027791185
3.073036,0.96875519683301,0.3756234874462493,0.0045610791042536465,1.3489397633835127
3.075337,0.9671263460044331,0.3729341276056868,0.0044552260592140335,1.3445156996693342
3.077639,0.96499246733013,0.37138837636387,0.004361244383711572,1.3407420880777114
3.079941,0.9599382317496872,0.3687939874796047,0.004272209112182925,1.3330044283414746
3.082242,0.9583632967244248,0.36513612174096943,0.004176743515488321,1.3276761619808826
3.084544,0.9535247243572402,0.3625105705116691,0.004068911908859181,1.3201042067777686
3.086846,0.949399918083477,0.35934882909160737,0.0039462410903086005,1.312694988265393
3.089147,0.9464048704773326,0.3562815639874454,0.003810214981028722,1.3064966494458066
3.0914490000000003,0.9405878994041276,0.3533157001647467,0.0036633067830064547,1.2975669063518809
3.09375,0.9314588162300572,0.35011191431090755,0.0035129361022025163,1.2850836666431673
3.096052,0.9298947632935372,0.3467453917663299,0.0033645439829881048,1.2800046990428553
3.098354,0.9226655938858084,0.3433783745813549,0.0032176357849658358,1.2692616042521292
3.100655,0.9172161406278578,0.3393589267122339,0.0030677597445592803,1.259642827084651
3.102957,0.909893484185024,0.33634359884979703,0.002913926580973673,1.2491510096157947
3.105259,0.9033815433534982,0.3321144234521862,0.0027595987769906843,1.238255565582675
3.10756,0.8954222847192346,0.3285337216155425,0.0026077441749946025,1.2265637505097715
3.109862,0.8884958352347031,0.3238895429245288,0.0024608359769723353,1.2148462141362042
3.112163,0.8811420164468342,0.32032071245742216,0.0023178849021291176,1.2037806138063851
3.114465,0.8726905906171761,0.31654561694460753,0.00217839631006757,1.1914146038718514
3.116767,0.8654164089332856,0.3121472745310924,0.0020423702007876924,1.1796060536651658
3.119068,0.8569244225910422,0.3085131515315314,0.0019117851358790095,1.1673493592584523
3.12137,0.8497486743462306,0.3039367385749589,0.0017876303961362851,1.155473043317326
3.123672,0.8413571000046557,0.29948893212170563,0.0016689167007647554,1.1425149488271262
3.125973,0.8328522530120801,0.2950346953432863,0.0015531708477775138,1.129440119203144
3.128275,0.8243211900784437,0.2906625688708324,0.0014408874775719415,1.116424646426848
3.130576,0.8153424775851771,0.2863725527043437,0.001338002274916616,1.1030530325644374
3.132878,0.8069063856078377,0.2821834431789209,0.0012494616437853502,1.0903392904305438
3.13518,0.7978440788874135,0.2771089273421853,0.0011727923821912374,1.07612579861179
3.137481,0.7896587695915466,0.27287035377702434,0.0011015641649683194,1.0636306875335393
3.139783,0.7800355406604921,0.2678774536058568,0.0010288520265532577,1.0489418462929019
3.142085,0.7726372042368588,0.2630863667168208,0.0009561398881381953,1.0366797108418178
3.144386,0.7614642669408082,0.258650926273502,0.0008873848729021845,1.0210025780872125
3.146688,0.7539120973535894,0.2535318928010021,0.0008255548232295129,1.008269544977821
3.148989,0.7437328926158779,0.24932299765968405,0.0007686711775306547,0.9938245614530928
3.151291,0.7341205457735659,0.2442143516355293,0.0007147553742160852,0.9790496527833112
3.153593,0.7240100960510907,0.23921798898158,0.0006628181324910407,0.9638909031651616
3.155894,0.7153672443876459,0.23451049631970144,0.0006163219351371918,0.9504940626424844
3.158196,0.7054318973658436,0.2293459559306425,0.0005782346245388259,0.935356087921025
3.160498,0.6951072683513022,0.22466072208664611,0.0005455883583116553,0.9203135787962601
3.162799,0.6860414991480963,0.21989931362145307,0.000513436732481866,0.9064542495020312
3.165101,0.6762194247772945,0.2149880291158534,0.00047732798347302567,0.8916847818766208
3.167402,0.6655999900859136,0.20959348094201213,0.0004377567516825157,0.8756312277796083
3.1697040000000003,0.6563012452555412,0.20506010170001185,0.0003957123179050991,0.8617570592734582
3.172006,0.6462867557701579,0.20023537926395396,0.00035515180531982634,0.8468772868394319
3.174307,0.6355931250191701,0.1952197256345068,0.00032300017949003714,0.8311358508331669
3.176609,0.6251977624278031,0.19008733687127768,0.0003051931251843076,0.8155902924242651
3.1789110000000003,0.6157540879609978,0.18549806326437324,0.0003022252828000194,0.8015543765081712
3.181212,0.6064874947564552,0.18067235154752054,0.00030618240597907035,0.7874660287099549
3.183514,0.5958210692273234,0.1755839857796584,0.0003106341695555028,0.7717156891765372
3.1858150000000003,0.585858516983665,0.17064549605220275,0.0003106341695555028,0.7568146472054232
3.188117,0.5766601841539611,0.16568227430487806,0.00030074136160787525,0.7426431998204469
3.190419,0.5662445413063014,0.16130520142845028,0.0002804611053152389,0.7278302038400669
3.19272,0.5559253533361312,0.15688657875864245,0.00025968620862522123,0.7130716183033989
3.1950220000000003,0.5462368318726223,0.1516191531669282,0.0002492987602802124,0.6981052837998307
3.197323,0.5363722184276455,0.14740184913885462,0.00025325588345926335,0.6840273234499593
3.199625,0.5265966402541974,0.14214728419747227,0.0002666111741885605,0.6690105356258582
3.201927,0.5165668169164954,0.13813822377669624,0.0002839235880969085,0.6549889642812886
3.204228,0.5068832418569601,0.13358555355919807,0.00030074136160787525,0.6407695367777659
3.20653,0.4971363528265602,0.129174350495351,0.00031261273114502824,0.6266233160530562
3.208832,0.4867820453881758,0.1247394046924296,0.00031706449472146056,0.6118385145753269
3.211133,0.477258239176995,0.12027082334248627,0.00032102161790051163,0.5978500841373817
3.213435,0.4678160486313819,0.11590265399321135,0.00033289298743766467,0.5840515956120309
3.215736,0.4576744365638716,0.11156267914658717,0.00035465716492244503,0.5695917728753812
3.218038,0.4484083379997264,0.1073607089708324,0.00037642134240722556,0.5561454683129661
3.22034,0.4391071199673669,0.10314983526792476,0.00038730343114961566,0.5426442586664413
3.222641,0.42910054472834175,0.09960821002267414,0.00038829271194437844,0.5290970474629603
3.224943,0.4198309836814149,0.09540228272374034,0.0003942283967129549,0.5156274948018682
3.227245,0.41052185140269737,0.0912576908340818,0.0004159925741977354,0.502195534810977
3.229546,0.401495653431282,0.08782191863387077,0.0004466602788353805,0.4897642323439882
3.231848,0.3919298027863237,0.08407551226410426,0.0004704030179096865,0.4764757180683376
3.234149,0.3834224825917614,0.08041418404268731,0.00047732798347302567,0.4643139946179218
3.236451,0.3741459965792711,0.07701056346830609,0.00047386550069135607,0.4516304255482685
3.238753,0.365313203003232,0.073570834144916,0.00046990837751230505,0.43935394552566026
3.241054,0.3568043988874776,0.07060892744539635,0.00047188693910183045,0.4278852132719757
3.2433560000000003,0.3482095273425788,0.06698618117497515,0.0004827690278442208,0.41567847754539816
3.245658,0.3401325442937383,0.0643294676006398,0.0005055224861237642,0.40496753438050187
3.247959,0.3311973601554412,0.06117564042693616,0.0005322330675823581,0.3929052336499598
3.250261,0.3233350510390643,0.05831562964927706,0.0005500401218880876,0.38220072081022943
3.252562,0.3156780176876006,0.055635667976264784,0.0005510294026828504,0.3718647150665483
3.254864,0.3084948498368283,0.053157519585384096,0.0005460829987090366,0.3621984524209215
3.257166,0.3002541408164546,0.05068876936205366,0.0005515240430802318,0.35149443422158844
3.259467,0.2935834204173694,0.04820072816322535,0.0005737828609623936,0.34235793144155713
3.261769,0.28601294913544745,0.045757699240558745,0.0005975256000366996,0.33236817397604285
3.264071,0.27936003579066804,0.043394802062267916,0.0006049452059974201,0.3233597830589333
3.266372,0.2729158606935834,0.04145729562572508,0.0005965363192419368,0.3149696926385505
3.2686740000000003,0.2665082889859052,0.03964938497329616,0.0005891167132812162,0.30674679067248256
3.270975,0.2600660924504101,0.03750808669303219,0.0005980202404340807,0.2981721993838764
3.273277,0.2541066649427593,0.03589209651478725,0.0006163219351371918,0.2906150833926837
3.275579,0.2486636420099747,0.03413612310408337,0.0006257201026874378,0.28342548521674543
3.27788,0.2431874781705655,0.03251914364504365,0.0006158272947398104,0.27632244911034903
3.280182,0.2377518748437416,0.030802246825732908,0.0005999988020236063,0.2691541204714981
3.282484,0.23280299766794094,0.0295463548567816,0.0005940631172550298,0.2629434156419776
3.284785,0.22773738535835836,0.027899202333501624,0.0006059344867921829,0.2562425221786521
3.287087,0.22303088197727453,0.026794670326149017,0.0006311611470586329,0.2504567134504821
3.289388,0.2186097861054798,0.0256213833035604,0.0006628181324910407,0.2448939875415312
3.29169,0.2145552187681447,0.02448717287236491,0.0007023893642815508,0.2397447810047912
3.293992,0.21027806325198795,0.02333317682527417,0.0007528426848144509,0.23436408276207654
3.296293,0.20656578706964074,0.02219797711328391,0.0008196191384609362,0.2295833833213856
3.298595,0.2031646396972464,0.021079100534407244,0.0009111276119764904,0.22515486784363012
3.300897,0.2002220239732246,0.019972095325067732,0.0010377555537061222,0.22123187485199844
3.3031980000000005,0.19714783390349935,0.01931917000052432,0.001208406490802696,0.2176754103948264
3.3055,0.19510942082589075,0.01819485237727645,0.0014334678716112213,0.2147377410747784
3.307801,0.19347265575095576,0.01745289178120439,0.0017223378636819435,0.2126478853958421
3.310103,0.19223654939789966,0.01644432001094377,0.0020740271862201,0.2107548965950636
3.3124050000000005,0.19122105266207576,0.01593681896323048,0.002476664469688539,0.2096345360949948
3.314706,0.19069327135806985,0.015278947234713257,0.002918378344550105,0.2088905969373332
3.317008,0.1903836264693091,0.0145607293777155,0.003387297441267648,0.20833165328829226
3.31931,0.18919203775201734,0.013889007718071595,0.003871550390304012,0.20695259586039294
3.321611,0.18690927231810234,0.013403765488240469,0.0043582765413272846,0.20467131434767008
3.323913,0.18369015261194435,0.01248620755109802,0.004829668840031735,0.20100602900307413
3.326214,0.18104085864356967,0.01205438648418408,0.0052669309513168686,0.19836217607907067
3.3285160000000005,0.17683789918702014,0.011589424510645588,0.005649287978492669,0.19407661167615844
3.330818,0.17163626076815766,0.010961725846368623,0.00595497574407436,0.18855296235860064
3.3331190000000004,0.16610964360821556,0.010669393371516232,0.006161240789782392,0.1829402777695142
3.335421,0.16129580326090004,0.009988768184719462,0.006263136711642954,0.17754770815726245
3.3377230000000004,0.1564898771599426,0.009552000713831709,0.006268083115616768,0.1723099609893911
3.340024,0.15295962864383175,0.009256700396595027,0.0061879513712409856,0.16840428041166774
3.3423260000000004,0.14987356720456932,0.00883180429524443,0.006069237675869457,0.1647746091756832
3.344627,0.14693293004213706,0.008468243603169119,0.005966847113611512,0.16136802075891768
3.3469290000000003,0.14390869865254738,0.007969646082608695,0.0059228241182445705,0.15780116885340065
3.349231,0.1415413497106801,0.007642194139542225,0.0059490400593057826,0.1551325839095281
3.351532,0.14002577153310358,0.007386465054096057,0.0060509359811663456,0.153463172568366
3.3538339999999995,0.13865908011513886,0.006963547514334981,0.006231974366607928,0.15185460199608175
3.356135,0.13734729378128346,0.006514414033512692,0.006488692732848861,0.15035040054764498
3.3584370000000003,0.1362749133997606,0.006523317560665557,0.006818617877902237,0.14961684883832846
3.360739,0.13440220485527474,0.005936674049371248,0.007219771240178531,0.14755865014482453
3.3630400000000003,0.13235785609289752,0.0057358500480344105,0.0076891849772934544,0.14578289111822534
