Wavelength,H2O_CH3OH_CO_NH3_120K_NASA,CH3OH,H2O_CH3OH_CO_NH3_100K_NASA,all
2.85208,0.05445379368405291,0.011193464442307946,0.07134884994158261,0.13699610806794346
2.854382,0.05793878993564195,0.012139215489369469,0.07628544312935108,0.1463634485543625
2.8566830000000003,0.061694809128889076,0.01335221390404867,0.08134518448738992,0.15639220752032768
2.858985,0.0657625774303404,0.014742454096215241,0.08632880670081282,0.16683383822736847
2.861286,0.06950744541131898,0.01613223272125294,0.092106589161885,0.1777462672944569
2.863588,0.0734753376376691,0.01749339418430049,0.0969345792388638,0.1879033110608334
2.8658900000000003,0.07758043825845436,0.01938581941268128,0.10173250952624906,0.1986987671973847
2.868191,0.08165741843091015,0.021280090909577564,0.10653092464895036,0.2094684339894381
2.870493,0.0857620342163794,0.02315451501993229,0.11157466644156036,0.22049121567787205
2.872795,0.09001646411450041,0.02500632234097223,0.11579515786755964,0.23081794432303224
2.875096,0.09385345080552374,0.026923672194312184,0.12064690487502365,0.2414240278748596
2.877398,0.09782813072629824,0.02915396456102828,0.12489794092593255,0.25188003621325905
2.879699,0.10178244756379966,0.031021003597321038,0.12927309481774382,0.2620765459788645
2.882001,0.10571931032992417,0.0331599056725202,0.13344946622998474,0.2723286822324291
2.884303,0.10981810809160113,0.03502186747039535,0.13735626920651575,0.28219624476851224
2.886604,0.11369145743132633,0.037037992689314216,0.14141385596633052,0.29214330608697103
2.888906,0.1178717075260955,0.03893641829037035,0.14561834782690095,0.30242647364336683
2.891208,0.12133682552972752,0.040900386423726516,0.14947763694246144,0.3117148488959155
2.893509,0.12562228488807414,0.04284404560341225,0.15327680647883485,0.32174313697032125
2.895811,0.1301317381624244,0.044266133927471085,0.15709294525126907,0.3314908173411646
2.898112,0.13429792803302884,0.04626056549133289,0.16162518578547252,0.3421836793098343
2.900414,0.13844133064378011,0.04775004261620724,0.16547138434750033,0.3516627576074877
2.902716,0.14280533332332285,0.04964569881449013,0.16999538268133138,0.3624464148191444
2.905017,0.14757514316237866,0.05155381732525263,0.17398994085006286,0.3731189013376941
2.907319,0.15172387896160613,0.053956735798167364,0.17828267273814988,0.3839632874979234
2.909621,0.15636229843001911,0.0560734826511806,0.18261710046341506,0.3950528815446148
2.911922,0.16117719795346525,0.05880042124856444,0.18726618630878056,0.4072438055108103
2.9142240000000004,0.1660129453955005,0.061207493825639024,0.1920127240526672,0.41923316327380666
2.916525,0.17118710788812125,0.06417906300132575,0.1971699173092271,0.4325360881986741
2.918827,0.17639860270007604,0.06660967550197287,0.20213511578064106,0.4451433939826899
2.921129,0.1815107062722456,0.06960663086974762,0.20694371244497886,0.4580610495869722
2.92343,0.18678910835781184,0.07319900783376902,0.21196806082494787,0.4719561770165287
2.925732,0.1921896889430164,0.07617934678490433,0.21734730865624727,0.48571634438416794
2.928034,0.1982016468617287,0.0797735700174412,0.2231105460578387,0.5010857629370087
2.930335,0.20317896621604328,0.08288868657020754,0.22758993954259546,0.5136575923288462
2.932637,0.2107443364873003,0.08649629524948177,0.23457738611715045,0.5318180178539325
2.9349380000000003,0.21675338539411645,0.08968295470722347,0.24012923532095484,0.5465655754222948
2.93724,0.2227212232990705,0.09323332906251737,0.2457892028002329,0.5617437551618207
2.939542,0.2295923093977795,0.09632675196022666,0.2517807976356722,0.5776998589936784
2.941843,0.2360381949243343,0.10007283077816287,0.25778645269527617,0.5938974783977733
2.944145,0.24241571867132966,0.10324518165490952,0.2634949037061567,0.6091558040323959
2.946447,0.2484844023220169,0.10644199558948643,0.2690574192869137,0.6239838171984171
2.948748,0.2542549122533487,0.10970250578784786,0.2752075552706932,0.6391649733118897
2.95105,0.2610978779037282,0.1123745178968958,0.28093346035295064,0.6544058561535746
2.953351,0.266926568072983,0.11499668075602534,0.28658227661996016,0.6685055254489685
2.955653,0.27103312319971634,0.11755976302265915,0.29045998947752955,0.679052875699905
2.957955,0.27858540291744066,0.11976051509312735,0.2969441769940504,0.6952900950046184
2.960256,0.28342018068884384,0.12193541940437864,0.3020441596833193,0.7073997597765418
2.962558,0.28831265386285404,0.12436649347215464,0.30559945705573205,0.7182786043907408
2.96486,0.2953500384749596,0.12650493398022494,0.31197067794361905,0.7338256503988037
2.967161,0.3004286884103235,0.12882153940004035,0.3173096844436884,0.7465599122540523
2.969463,0.3063519214662032,0.13037840532573022,0.3220969483541211,0.7588272751460545
2.971764,0.31130015070155626,0.13267885589603504,0.3272226273151393,0.7712016339127307
2.974066,0.3162435315837491,0.134986229973273,0.3324142438791371,0.7836440054361592
2.976368,0.3212964852473636,0.13687819363452491,0.33653049571219096,0.7947051745940794
2.978669,0.32634459055781784,0.1389418602677177,0.3408911045445215,0.8061775553700571
2.980971,0.3313558483842541,0.14120630860197045,0.3462480499512838,0.8188102069375083
2.983273,0.3365915849620101,0.1438012390004965,0.3505926592181855,0.8309854831806921
2.985574,0.3416842951215387,0.1465618719982881,0.3554807688743514,0.8437269359941783
2.987876,0.3463503502029651,0.14928973372992965,0.36011288548365605,0.8557529694165509
2.990177,0.3514706959755071,0.15203744284811282,0.3647091242795749,0.8682172631031948
2.992479,0.3567093415651593,0.15557997056221587,0.3691744575401668,0.881463769667542
2.994781,0.3613210950911908,0.1583419882613941,0.3737246369810632,0.8933877203336481
2.997082,0.3661262979083165,0.16182589695013022,0.3782733619160116,0.9062255567744584
2.999384,0.3703147902034581,0.16537257876839315,0.3818504768776454,0.9175378458494966
3.001686,0.3757274916715633,0.1688112538784997,0.38677252500593307,0.931311270555996
3.003987,0.3808919574578635,0.1717795920842843,0.3917900856914778,0.9444616352336256
3.006289,0.3856186169537931,0.1752995030090726,0.3955839220393748,0.9565020420022404
3.0085900000000003,0.390447576701404,0.1788849564661609,0.3998199281954869,0.9691524613630518
3.010892,0.39458710062962704,0.1824976423838527,0.40367339928725504,0.9807581423007348
3.013194,0.39973896069771053,0.18611078986867335,0.4077440766006026,0.9935938271669866
3.015495,0.40389496902667854,0.18977332503628355,0.4117352409221219,1.005403534985084
3.0177970000000003,0.4080378868021137,0.19263781063807167,0.41505248415436624,1.0157281815945516
3.020098,0.41271800210770504,0.1964309693031529,0.4189238941528274,1.0280728655636853
3.0224,0.41727157539581344,0.199441310117665,0.4219061161816982,1.0386190016951766
3.024702,0.4212317102571072,0.20226194684221013,0.42493245822432746,1.048426115323645
3.027003,0.4252960847113463,0.2047996429167559,0.4284945432911646,1.0585902709192672
3.029305,0.429003135537675,0.2082101624320012,0.4308687818337399,1.0680820798034159
3.031607,0.4328343042049061,0.21073216522416524,0.4340517256834452,1.0776181951125166
3.0339080000000003,0.4373040009833422,0.2125895113507517,0.4370712800316501,1.086964792365744
3.03621,0.4403041619189061,0.2152919868903052,0.439070740874938,1.0946668896841492
3.038511,0.4441489059749858,0.21722826099592896,0.44139407170933065,1.1027712386802455
3.040813,0.4477400811607843,0.21915068808768653,0.4441348457508211,1.111025614999292
3.043115,0.4509230250104898,0.22105834503132013,0.4460455817312764,1.1180269517730863
3.045416,0.4540565156579605,0.2226461359546445,0.44798152914816497,1.12468418076077
3.047718,0.4573252753586024,0.22417253844982876,0.4488644142586468,1.1303622280670778
3.05002,0.4604834926071904,0.22562878274142414,0.4510660514287171,1.137178326777332
3.052321,0.4637789182502136,0.22715056956531965,0.4519930565529573,1.1429225443684905
3.054623,0.4655088106577914,0.2278595366752691,0.4536574961928718,1.1470258435259324
3.056924,0.468848356314573,0.2285809660976982,0.4537549480913928,1.151184270503664
3.059226,0.4712861082835476,0.2293780925292625,0.4547677690665695,1.1554319698793796
3.061528,0.4742736635008948,0.2301595256784451,0.456067612548833,1.1605008017281728
3.063829,0.4761795511281898,0.23087864726522986,0.4567134131897786,1.1637716115831982
3.066131,0.4782197381380238,0.2308338752537291,0.4570576462641564,1.1661112596559091
3.068433,0.4801265954359508,0.2309261886795038,0.4572409140136139,1.1682936981290686
3.070734,0.4816819471297597,0.2316651576528301,0.4572544894024626,1.1706015941850525
3.073036,0.4831539071492122,0.23168962071066035,0.4572554590730946,1.1720989869329672
3.075337,0.4846704720177389,0.2316706964583765,0.4572554590730946,1.1735966275492098
3.077639,0.4854486326999594,0.2309044950244467,0.4570018902028135,1.1733550179272196
3.079941,0.4861186751067061,0.23092895808227698,0.4559580397674112,1.1730056729563945
3.082242,0.4866277521885325,0.2308652618184925,0.4559939175807971,1.173486931587822
3.084544,0.4881084392436735,0.2301567562756719,0.4554184180606752,1.1736836135800206
3.086846,0.4880958335254569,0.22937347685797374,0.4545791681286357,1.1720484785120664
3.089147,0.4880745007715517,0.2286700485535708,0.4535183484571725,1.1702628977822949
3.0914490000000003,0.4868895632591862,0.2278032254855466,0.4519450578566708,1.1666378466014036
3.09375,0.4867630212417036,0.2266340759481104,0.4510374461450716,1.1644345433348855
3.096052,0.4854549355590677,0.22561170475765585,0.4492435554757784,1.1603101957925022
3.098354,0.4854117852159414,0.2248870443653247,0.4481735239333109,1.1584723535145771
3.100655,0.4840324287418498,0.22331771612715529,0.4462516367405871,1.1536017816095925
3.102957,0.4821910242115861,0.2222893445640254,0.4449954284367658,1.1494757972123772
3.105259,0.4813076542657882,0.22035907083107695,0.4427511257588852,1.1444178508557503
3.10756,0.4795719438344181,0.21890605750938366,0.44067700027692935,1.1391550016207308
3.109862,0.4772660670714022,0.21741427254886492,0.438954380399092,1.133634720019359
3.112163,0.4758430754188683,0.2153099880083313,0.4372913952651255,1.128444458692325
3.114465,0.4734557463227603,0.21312677548876025,0.4353375089415441,1.1219200307530646
3.116767,0.4706194597240129,0.21101464430703573,0.43249782849558455,1.1141319325266332
3.119068,0.4689196271060286,0.20878435194031966,0.4298176588685973,1.1075216379149455
3.12137,0.4657177746789983,0.20626604168518656,0.4279786785149137,1.0999624948790987
3.123672,0.4633226882178339,0.20381142769383806,0.4258124343229133,1.0929465502345852
3.125973,0.4607486975250562,0.20120911222125,0.4224505862415946,1.084408395987901
3.128275,0.4577543546132847,0.19852325309833588,0.4206140300644912,1.0768916377761115
3.130576,0.4546761351918407,0.1956735376446717,0.41774622917020215,1.068095902006715
3.132878,0.4516842164566493,0.19222147708782786,0.4149860617160708,1.058891755260548
3.13518,0.44873350872332,0.1896593179554518,0.41223316679167976,1.0506259934704514
3.137481,0.44578958868441504,0.18626679955823255,0.4094889989029773,1.0415453871456248
3.139783,0.4428640923875191,0.18288858974200844,0.4068345255477393,1.0325872076772669
3.142085,0.43891462390317787,0.17956069074283149,0.40367921731104733,1.0221545319570569
3.144386,0.43585531305905895,0.17632879770646018,0.4001685247877089,1.0123526355532282
3.146688,0.4329084840082578,0.17301382258689169,0.3975348993510601,1.0034572059462097
3.148989,0.4294695471116912,0.1691288120631646,0.3950258765906298,0.9936242357654856
3.151291,0.42623908940101535,0.16611108617459056,0.3911244068025752,0.983474582378181
3.153593,0.42234198313080495,0.16221361333838386,0.3886241110778332,0.973179707547022
3.155894,0.4193747909967308,0.15858708040682584,0.38495342290020657,0.9629152943037632
3.158196,0.41554362232949976,0.15460375608464869,0.3822068308349239,0.9523542092490722
3.160498,0.4115728210912534,0.1512158533587182,0.37875043986698026,0.9415391143169518
3.162799,0.4083210306266726,0.1473119185827073,0.37562664592583,0.9312595951352098
3.165101,0.4041989607698264,0.1441811087475593,0.3726085460835733,0.920988615600959
3.167402,0.4009912903190037,0.14033994710107514,0.3684874458973592,0.9098186833174379
3.1697040000000003,0.3969579453249902,0.13703512645834184,0.3654402559361408,0.8994333277194728
3.172006,0.3927820587480653,0.13342059427213454,0.3620308939938517,0.8882335470140514
3.174307,0.3890866439693213,0.1299265311065632,0.3581139094756842,0.8771270845515687
3.176609,0.38455779728233,0.1269835790928666,0.3550550834668813,0.8665964598420779
3.1789110000000003,0.3808298985374123,0.12369352859825727,0.3515938441457775,0.8561172712814471
3.181212,0.37665304228985536,0.1207284213623748,0.3481224232830372,0.8455038869352673
3.183514,0.3726667263214963,0.11739821452755345,0.3442325895425671,0.8342975303916168
3.1858150000000003,0.3682450282393466,0.1145540378794358,0.34041887494671297,0.8232179410654954
3.188117,0.36389702512523264,0.11179294331451536,0.3371462365635429,0.8128362050032909
3.190419,0.3601264608725048,0.10899769278205823,0.332547088755728,0.8016712424102909
3.19272,0.35538477148177844,0.10631875716607724,0.3288148264929661,0.7905183551408218
3.1950220000000003,0.3507710786144828,0.10366428460792654,0.325444736211275,0.7798800994336843
3.197323,0.346098720673948,0.10091796019113003,0.32197913337232703,0.768995814237405
3.199625,0.3414646647233793,0.09850719507702443,0.3175632533139696,0.7575351131143733
3.201927,0.3369527872724489,0.09617951204611608,0.3132622792255102,0.7463945785440752
3.204228,0.3324777573055364,0.09365612455256538,0.3089879710794321,0.7351218529375338
3.20653,0.32795278930107336,0.09141798554465844,0.3051534085649889,0.7245241834107208
3.208832,0.32260214675341936,0.08952325248063328,0.3011079426880748,0.7132333419221275
3.211133,0.3183404443255579,0.08746697092150245,0.2967017593360379,0.7025091745830983
3.213435,0.31299465013106426,0.08476726478472214,0.29222866871038944,0.6899905836261758
3.215736,0.3081273883934874,0.08281345112820117,0.2881895056925836,0.6791303452142722
3.218038,0.30378423363253376,0.08092056433269153,0.2832228527152216,0.6679276506804468
3.22034,0.2982595352064268,0.079019830895991,0.2790789652691543,0.6563583313715722
3.222641,0.29376123314434505,0.0774518873592082,0.2745593304531675,0.6457724509567208
3.224943,0.2884421048922328,0.07549622743417178,0.2694050462085037,0.6333433785349083
3.227245,0.2833532734152324,0.07361995705530153,0.2648451700612869,0.6218184005318208
3.229546,0.2786726732743252,0.07251450378164982,0.2598479724590153,0.6110351495149904
3.231848,0.27377826075905104,0.07069085205547115,0.25539427524600783,0.5998633880605301
3.234149,0.26858955320694944,0.06892489622040167,0.2505885875935662,0.5881030370209173
3.236451,0.2636980497035713,0.0677649780255429,0.24567575133628294,0.5771387790653971
3.238753,0.25875854750390664,0.06591501697301846,0.2405917682124429,0.5652653326893678
3.241054,0.2531916684053055,0.06474402116706675,0.2354641499101605,0.5533998394825327
3.2433560000000003,0.2485580972900527,0.06301083659814725,0.2309828170841397,0.5425517509723397
3.245658,0.2435463546283004,0.06191046056291316,0.22576744358965675,0.5312242587808703
3.247959,0.23846382601040836,0.0600817315983169,0.2205137681052078,0.5190593257139331
3.250261,0.2339204342639363,0.0589241212391025,0.21531730318804987,0.5081618586910887
3.252562,0.22846070377017666,0.05775912580582612,0.2104277390259358,0.4966475686019386
3.254864,0.2233490850333231,0.0560060938503651,0.20605840315791685,0.485413582041605
3.257166,0.2189894458716246,0.054901102143842265,0.20106120555564524,0.4749517535711121
3.259467,0.2138322526150647,0.05372087499531307,0.1960882497191749,0.4636413773295527
3.261769,0.20879093499903484,0.05258218888838248,0.1911739589559436,0.4525470828433609
3.264071,0.2042077867566487,0.0511000968375701,0.18639493724588327,0.44170282084010215
3.266372,0.19954803453433065,0.05026235249866495,0.18144525350458215,0.43125564053757776
3.2686740000000003,0.1947345895168326,0.048596095163432114,0.17693870924212807,0.4202693939223928
3.270975,0.1899012662513775,0.047450947116697284,0.17229932010308305,0.4096515334711578
3.273277,0.18506745815060635,0.046291028921838534,0.16757314544246954,0.3989316325149144
3.275579,0.1810665971227665,0.04517080550006288,0.16295266488074947,0.3891900675035789
3.27788,0.17649896361049322,0.04407135259908653,0.15869435630010026,0.37926467250968005
3.280182,0.1718804223900373,0.0429229735824496,0.15422078083913587,0.3690241768116228
3.282484,0.1673937563755402,0.04236401578938395,0.1498368999116361,0.35959467207656026
3.284785,0.16335168434583822,0.041173634164019535,0.14564695311054646,0.3501722716204042
3.287087,0.15883835238895974,0.040064488353336855,0.14171639320353024,0.3406192339458268
3.289388,0.15522196576672787,0.03899180634583516,0.13745178176377268,0.3316655538763357
3.29169,0.15135491928611094,0.038407923927810346,0.13382763777648446,0.32359048099040577
3.293992,0.14703067310248233,0.037265545283848775,0.1299562277780233,0.3142524461643544
3.296293,0.1435728276285907,0.036445802062969684,0.12627147937623187,0.30629010906779225
3.298595,0.13973923478477954,0.035556362205630715,0.12269581892054612,0.29799141591095635
3.300897,0.13626054139229882,0.034960940609384074,0.11920258046858465,0.29042406247026753
3.3031980000000005,0.1327721512934976,0.03394780076150704,0.11583345985752562,0.28255341191253025
3.3055,0.1293652135277886,0.03343038401003999,0.11288953981862067,0.27568513735644923
3.307801,0.1259039742066848,0.03290419748312436,0.10955096383247123,0.2683591355222804
3.310103,0.12324513733360265,0.03262587250441372,0.1066841326088143,0.2625551424468307
3.3124050000000005,0.11988959211139233,0.032473093784756636,0.1039792363807098,0.2563419222768588
3.314706,0.1176578951517284,0.0324634008750503,0.10188474781548096,0.2520060438422597
3.317008,0.1150422086217725,0.032990510536223684,0.0995599624751402,0.2475926816331364
3.31931,0.11318383485544795,0.033479310125700566,0.09797455099173784,0.2446376959728864
3.321611,0.11139915605715923,0.034170276117623986,0.09667955586263456,0.2422489880374178
3.323913,0.11007070729125024,0.03616009201019706,0.0957123094071643,0.2419431087086116
3.326214,0.10884601328297062,0.03831745677055117,0.09553340517555102,0.2426968752290728
3.3285160000000005,0.1087398343487611,0.040888385678375806,0.0955809190365215,0.2452091390636584
3.330818,0.10810179107287196,0.04473647083179304,0.09681821876301776,0.2496564806676828
3.3331190000000004,0.1089032238502616,0.04868610075356241,0.0980642455252025,0.2556535701290265
3.335421,0.1096096289057103,0.053140223547190384,0.0993500287833013,0.262099881236202
3.3377230000000004,0.1108149295013489,0.05810068548119241,0.10061544895812703,0.26953106394066834
3.340024,0.11142630683485666,0.06301037503101839,0.10185323351993934,0.2762899153858144
3.3423260000000004,0.1122447088483072,0.06825516231640642,0.1024646108534471,0.2829644820181607
3.344627,0.11233585788771992,0.07228833588850188,0.10253539680958676,0.2871595905858085
3.3469290000000003,0.11163430118543144,0.07581332405170776,0.1018871719920611,0.2893347972292003
3.349231,0.11033639704443204,0.07846825817698734,0.10014806771347876,0.2889527229348981
3.351532,0.10841693402828832,0.08062331510169707,0.0980278828765006,0.287068132006486
3.3538339999999995,0.10622741774111856,0.08147952212575718,0.09577970151609183,0.2834866413829676
3.356135,0.10370724376841964,0.08207448215487494,0.09363818392520856,0.2794199098485032
3.3584370000000003,0.10187214209726432,0.08203340268040521,0.09221034391951438,0.2761158886971839
3.360739,0.10033860799267663,0.08199324634019323,0.09165520748266556,0.2739870618155354
3.3630400000000003,0.09964965700860487,0.0825863601007955,0.09210949817378114,0.2743455152831815
3.365342,0.09982419772237393,0.08435739317428259,0.09341515967983698,0.2775967505764935
3.3676440000000003,0.10097713610388184,0.08672477097827408,0.09521486837292244,0.2829167754550783
3.3699449999999995,0.10222849605454283,0.0901777546693757,0.0971323920478021,0.28953864277172064
3.372247,0.10399669045208668,0.0927736082021595,0.0989577970126369,0.2957280956668831
