Wavelength,d_NH3_CH3OH_50_10K_I10m_Baselined,H2O_CH4_10_0.6_a_V3,HNCO_NH3,all
2.85208,0.001356415539057285,0.2370610573831317,0.0003454743334665412,0.2387629472556555
2.854382,0.001414729646408375,0.2469019305245148,0.00036017536893320247,0.24867683553985634
2.8566830000000003,0.0014705935811816881,0.2570333941336222,0.0003748764043998638,0.2588788641192037
2.858985,0.0015298877575638885,0.2671560371214496,0.0003895774398665252,0.26907550231888
2.861286,0.0015950623481327535,0.2779470871884946,0.0004042784753331864,0.27994642801196057
2.863588,0.0016666073874038391,0.2892369923923749,0.00041897951079984783,0.2913225792905786
2.8658900000000003,0.001744522875377144,0.2998976932782821,0.00043368054626650906,0.3020758966999258
2.868191,0.0018322390536615566,0.3114414363612202,0.0004483815817331705,0.3137220569966149
2.870493,0.001931226025803743,0.3231233691775448,0.00046308261719983163,0.3255176778205484
2.872795,0.002032663170523706,0.3346465308108295,0.0004777836526664932,0.3371569776340197
2.875096,0.0021247896594481165,0.3462569185878831,0.0004924846881331545,0.3488741929354644
2.877398,0.0021968247332347576,0.3582436528728832,0.0005071857235998156,0.3609476633297177
2.879699,0.002260039185741401,0.3701622723602211,0.0005218867590664769,0.37294419830502895
2.882001,0.002328644017919154,0.3819784746338079,0.000536097760017583,0.3848432164117446
2.884303,0.002410969816532457,0.39298268971511946,0.0005507987954842444,0.39594445832713615
2.886604,0.002501136167394647,0.4057319177063237,0.0005650097964353503,0.40879806367015376
2.888906,0.0025903224492257256,0.4182258377149237,0.0005797108319020117,0.4213958709960514
2.891208,0.00267362831687014,0.4299214914976839,0.0005939218328531175,0.4331890416474071
2.893509,0.0027456633906567805,0.44161126486625735,0.0006086228683197789,0.4449655511252339
2.895811,0.0028049575670389807,0.4533191695119064,0.0006228338692708848,0.4567469609482162
2.898112,0.0028637617089056263,0.465301003451751,0.0006375349047375463,0.4688023000653941
2.900414,0.0029426572659100422,0.4764904515799425,0.0006517459056886521,0.4800848547515412
2.902716,0.003044094410630005,0.4883056737844981,0.000665956906639758,0.4920157251017679
2.905017,0.0031210298295721987,0.4991937506856231,0.0006801679075908642,0.5029949484227861
2.907319,0.003117599587963312,0.5107757164607745,0.0006948689430575254,0.5145881849917953
2.909621,0.0030475246522388925,0.5206043387392687,0.0007120201511019635,0.5243638835426095
2.911922,0.0030200827193677922,0.5294269201573276,0.0007928758461686008,0.533239878722864
2.9142240000000004,0.003140631210194415,0.5418909480604787,0.0008810820589685689,0.5459126613296416
2.916525,0.003403289710532097,0.5517827847914795,0.0009692882717685367,0.5561553627737801
2.918827,0.003726712490798646,0.5620455776507558,0.0010570044500529494,0.5668292945916075
2.921129,0.004052095409127417,0.5720231704219789,0.001143250524790696,0.5772185163558969
2.92343,0.004432852227713945,0.5813112846298155,0.0012304766685595526,0.5869746135260889
2.925732,0.004956699124842643,0.590833145301572,0.0013221131229684087,0.5971119575493831
2.928034,0.005702531657517928,0.5995077362959332,0.0014103193357683766,0.6066205872892195
2.930335,0.006732584209215332,0.6075075497623749,0.0014926451343816802,0.6157327791059718
2.932637,0.008104680852770389,0.6172146434810113,0.0016215242119727445,0.6269408485457544
2.9349380000000003,0.009822251829791987,0.6248626121652839,0.0018851627813415367,0.6365700267764176
2.93724,0.011831883378084593,0.6328413541475567,0.0021316501426658922,0.6468048876683072
2.939542,0.014068400907079332,0.6405437166630562,0.0023889182633324646,0.6570010358334679
2.941843,0.01637891364792294,0.6451377902463877,0.0026456963494834837,0.6641624002437942
2.944145,0.018570348001486586,0.6537834692043314,0.002901984401118945,0.6752558016069371
2.946447,0.020486872991823668,0.6626751454890837,0.0031479817279277448,0.686310000208835
2.948748,0.022087325719627533,0.665716789727136,0.003414560504389871,0.6912186759511534
2.95105,0.02335651511491596,0.6745075189016838,0.0039026348818830274,0.7017666688984828
2.953351,0.02431110235121784,0.6808877682942149,0.004414230916122841,0.7096131015615555
2.955653,0.0250187121916798,0.687614962123759,0.004840070910140464,0.7174737452255794
2.957955,0.02554843950299516,0.6922178563283707,0.005118410514975918,0.7228847063463418
2.960256,0.02592478601094169,0.6989533807446795,0.0054124312243091464,0.7302905979799303
2.962558,0.026145791577457164,0.7029775441864202,0.005358527427598053,0.7344818631914753
2.96486,0.026202635581261596,0.7090280003499825,0.005269831180282529,0.7405004671115266
2.967161,0.0260619956752972,0.7133848972277853,0.005167413966531457,0.7446143068696139
2.969463,0.025684179063804,0.7166970405184241,0.005066956890842604,0.7474481764730707
2.971764,0.02504762422809757,0.7224696471116664,0.004977770609011525,0.7524950419487755
2.974066,0.02417340265234677,0.7279918460674599,0.004876823498807117,0.7570420722186139
2.976368,0.023090426372969392,0.7323159106327206,0.004776366423118265,0.7601827034288083
2.978669,0.021856519462800945,0.7372608489291899,0.004685220003224965,0.7638025883952158
2.980971,0.020563318376250302,0.7424042512044592,0.004586723065598334,0.7675542926463078
2.983273,0.019300009395148542,0.7462980654650622,0.004486265989909481,0.7700843408501202
2.985574,0.01812637673039341,0.7482964262194971,0.004399529880656179,0.7708223328305467
2.987876,0.017090443764509345,0.7545139841528637,0.0042980927359362155,0.7759025206533092
2.990177,0.016224062741007437,0.7596897287061596,0.0041706837618918175,0.7800844752090588
2.992479,0.015513512693452141,0.7625157577573675,0.004019753131100761,0.7820490235819204
2.994781,0.014933311827034576,0.766923618224788,0.0038707826383719275,0.7857277126901946
2.997082,0.014459448450492525,0.7701813676842002,0.003722302180158648,0.7883631183148514
2.999384,0.014068890941594891,0.7744123256915053,0.0035738217219453685,0.7920550383550455
3.001686,0.013739587747141676,0.7790558927609081,0.0034258312982476447,0.7962213118062975
3.003987,0.013467128556492885,0.7823200126690225,0.003277350840034365,0.7990644920655497
3.006289,0.013258863887381848,0.7850960581996436,0.003115149415385535,0.8014700715024109
3.0085900000000003,0.013119694084964124,0.7890658278101578,0.0031342607614921946,0.8053197826566141
3.010892,0.013038838389897485,0.7925828055282987,0.003248928838132153,0.8088705727563283
3.013194,0.013000615697684166,0.7951398056304667,0.0033577165005854465,0.8114981378287364
3.015495,0.01299277514543528,0.7988978803302608,0.003466994197554296,0.8153576496732503
3.0177970000000003,0.013006006077355277,0.8016562846183221,0.0035767619290387,0.818239052624716
3.020098,0.01303295797571082,0.8043201122448811,0.003696820385349768,0.8210498906059417
3.0224,0.013063830150190808,0.8054324905951921,0.0038056080478030617,0.8223019287931859
3.024702,0.013085391668875243,0.8054569923209697,0.003913905675740801,0.8224562896655857
3.027003,0.013086371737906357,0.8064929252868537,0.004021713269162983,0.8236010102939231
3.029305,0.013068240460830808,0.8110326050389587,0.004130010897100722,0.8282308563968902
3.031607,0.013038838389897485,0.8127413553947003,0.004250069353411789,0.8300302631380095
3.0339080000000003,0.013006496111870831,0.8132186490128512,0.004358366981349528,0.8305835121060716
3.03621,0.012981994386093062,0.8136248876262465,0.004471074919927265,0.8310779569322668
3.038511,0.012975623937390842,0.8125134893449671,0.0046322962755449846,0.8301214095579029
3.040813,0.012993265179950834,0.8140619984141221,0.004812628977269363,0.8318678925713423
3.043115,0.013031487872164156,0.8136145969014199,0.004993451713509298,0.8316395364870933
3.045416,0.013086371737906357,0.8121533139760337,0.0051698641391092325,0.8304095498530494
3.047718,0.013152036362990777,0.8109198971003809,0.005349706806318057,0.8294216402696898
3.05002,0.013223091367746308,0.8094546938988704,0.005518278679669106,0.8281960639462859
3.052321,0.01329365633798628,0.8076881194702933,0.005695181139784598,0.8266769569480642
3.054623,0.013368631618866254,0.8054991352893073,0.005874533772477866,0.8247423006806514
3.056924,0.013453897624572891,0.8005022533341891,0.006053886405171134,0.8200100373639332
3.059226,0.01355141449316841,0.7989125813657275,0.006224418416584405,0.8186884142754803
3.061528,0.013651381534341705,0.7963653819538706,0.006388089944779902,0.8164048534329923
3.063829,0.013743017988750564,0.7920511180789211,0.0065429408516954005,0.8123370769193671
3.066131,0.013817013200599424,0.7894446244906821,0.006693871482486457,0.809955509173768
3.068433,0.01386944689376385,0.7841723431378218,0.006836961561028628,0.8048787515926143
3.070734,0.013895908757603841,0.7798321074335478,0.00699034236439746,0.8007183585555491
3.073036,0.013895418723088285,0.7750297691811051,0.0071309822703618546,0.7960561701745553
3.075337,0.013867976790217184,0.7704538268748491,0.007284853108246242,0.7916066567733124
3.077639,0.013816033131568314,0.7655770033760418,0.007427453152272856,0.7868204896598829
3.079941,0.013748408368421672,0.7587459222291999,0.007576423645001692,0.7800707542426232
3.082242,0.01367539322560392,0.7538720389374861,0.0077219638961216405,0.7752693960592117
3.084544,0.013606298358910614,0.7480930618955416,0.007867994181757142,0.7695673544362093
3.086846,0.01354847428607508,0.7426046753213212,0.008003243708050426,0.7641563933154467
3.089147,0.013508781490315092,0.7361396499575993,0.008126242371454826,0.7577746738193692
3.0914490000000003,0.013497510696457318,0.7299083710577972,0.008244830724219226,0.7516507124784737
3.09375,0.01352495262932842,0.721408722385489,0.008374199836325846,0.7433078748511432
3.096052,0.013598457806661728,0.7160541152340153,0.008499648672308022,0.738152221712985
3.098354,0.013703325192990577,0.7094371791704712,0.008616766921525758,0.7317572712849876
3.100655,0.013817013200599424,0.7022356319298694,0.008743195826539046,0.7247958409570079
3.102957,0.013916000172741612,0.6950086028944586,0.008859334006725669,0.7177839370739258
3.105259,0.013975294349123809,0.6871665805420261,0.00893773952921453,0.7100796144203643
3.10756,0.013969903969452704,0.6795661452057621,0.008973022014334519,0.7025090711895492
3.109862,0.013899338999212729,0.6716623785043694,0.00900781446493895,0.694569531968521
3.112163,0.013788101164181657,0.6635562275480522,0.009031826156201165,0.6863761548684351
3.114465,0.013662652328199479,0.6554598772820464,0.009065638537774484,0.6781881681480204
3.116767,0.01353524335415508,0.6470763667899249,0.009097490781285585,0.6697091009253656
3.119068,0.01341273472526624,0.6383277805837148,0.009132773266405571,0.6608732885753866
3.12137,0.013301496890235168,0.6300158151308644,0.009168055751525558,0.6524853677726251
3.123672,0.013207900297764091,0.6211569711586544,0.009169525855072223,0.6435343973114908
3.125973,0.013139785500101892,0.6120981931040976,0.009109251609658912,0.6343472302138584
3.128275,0.013097642531764129,0.6031756446448654,0.00906073819261893,0.6253340253692484
3.130576,0.013068240460830808,0.5940908947609842,0.009004384223330062,0.616163519445145
3.132878,0.013038348355381929,0.5847145743403476,0.008948030254041194,0.6067009529497708
3.13518,0.013004535973808608,0.5753833370951421,0.008896576629907879,0.5972844496988585
3.137481,0.012969743523204177,0.5659242008413766,0.008838262522556789,0.5877322068871376
3.139783,0.012936911210661966,0.5568977650648465,0.008780928484236809,0.5786156047597453
3.142085,0.01290260879457309,0.5473950157391967,0.00873290510171238,0.5690305296354822
3.144386,0.012862915998813106,0.537549242252658,0.00867704116693907,0.5590891994184102
3.146688,0.012813422512742012,0.5281067671724214,0.008626077577321312,0.5495462672624847
3.148989,0.012751678163782035,0.5191994097831714,0.008568253504485776,0.5405193414514392
3.151291,0.012677192917417614,0.5088944739555574,0.008510919466165797,0.5300825863391408
3.153593,0.012590946842679869,0.4996254710938273,0.008463876152672481,0.5206802940891797
3.155894,0.012499800422786572,0.4900732282821065,0.008408502252414723,0.5109815309573078
3.158196,0.012408163968377716,0.4803676046670166,0.008353128352156966,0.5011288969875513
3.160498,0.01231652751396886,0.47077076871438006,0.008301184693508096,0.491388480921857
3.162799,0.01221901064537334,0.4614365912620812,0.008243850655188114,0.4818994525626426
3.165101,0.012112183120982266,0.4513600115187161,0.008187496685899248,0.4716596913255976
3.167402,0.01199408480273342,0.442324755120906,0.008144373648530373,0.4624632135721698
3.1697040000000003,0.011863245587080136,0.4327078277531317,0.008101740645677058,0.4526728139858888
3.172006,0.01172358575014685,0.4220588876955978,0.008067928264103736,0.4418504017098484
3.174307,0.011584415947729123,0.4130922361299655,0.008035095951561525,0.43271174802925616
3.176609,0.011457006973684729,0.40411088352886654,0.00800177360450376,0.42356966410705504
3.1789110000000003,0.011341358828013659,0.3948080682855633,0.007968451257445995,0.4141178783710229
3.181212,0.01122865088943592,0.38513331684495344,0.007935618944903784,0.4042975866792932
3.183514,0.01111104260570263,0.37612158210389,0.007903276666877129,0.39513590137646976
3.1858150000000003,0.010990004080360456,0.36660119153568016,0.007881225113677138,0.3854724207297177
3.188117,0.01087141572759605,0.3576036677955679,0.007847902766619372,0.3763229862897833
3.190419,0.010759687858049424,0.3482513590661935,0.007814580419561606,0.3668256273438045
3.19272,0.01065629057526724,0.33950571306707666,0.007781258072503841,0.3579432617148477
3.1950220000000003,0.010562693982796164,0.33008773971261784,0.007747935725446075,0.3483983694208601
3.197323,0.01047693794257397,0.3214979246894477,0.007714613378388308,0.33968947601040994
3.199625,0.010397062316538443,0.3129551529797708,0.007681291031330544,0.3310335063276397
3.201927,0.010319636863080696,0.304134531699774,0.007669530202957213,0.3221236987658119
3.204228,0.010249561927356276,0.2951017254745417,0.007718043619997195,0.3130693310218951
3.20653,0.010195658130645184,0.2868451339219491,0.007769987278646065,0.30481077933124034
3.208832,0.01016429592164964,0.2778005668683435,0.007813110316014941,0.2957779731060081
3.211133,0.010150084920698531,0.27005606138450633,0.007867994181757142,0.28807414048696195
3.213435,0.01014322443748076,0.2620425269516293,0.007910627184610459,0.2800963785737205
3.215736,0.010139794195871871,0.2540152715523166,0.007954240256494887,0.27210930600468336
3.218038,0.010143714471996315,0.24600467732653286,0.008005693880628205,0.2641540856791574
3.22034,0.010159395576494087,0.2385105794801445,0.008050777056059295,0.25672075211269785
3.222641,0.010185857440334078,0.2308106671372228,0.008092429989881503,0.2490889545674384
3.224943,0.010213299373205179,0.22311075479430115,0.008149273993685929,0.24147332816119224
3.227245,0.01023535092640517,0.2155916651876195,0.008190926927508136,0.2340179430415328
3.229546,0.01025348220348072,0.20843275094987096,0.008235520068423676,0.2269217532217753
3.231848,0.010272103515071823,0.20129588826532244,0.00828697369255699,0.21985496547295125
3.234149,0.010294645102787372,0.1942271403784361,0.008329606695410306,0.2128513921766338
3.236451,0.010317676725018474,0.1872054358050431,0.008382530423090288,0.20590564295315186
3.238753,0.010335808002094023,0.1807805932715965,0.008425653460459162,0.1995420547341497
3.241054,0.01034462862337402,0.17429253628564334,0.008467306394281367,0.19310447130329872
3.2433560000000003,0.010341198381765131,0.16771186277625014,0.008534441122912455,0.18658750228092774
3.245658,0.010322087035658472,0.1615531089847502,0.008602555920574653,0.18047775194098334
3.247959,0.010294645102787372,0.15558350851625458,0.008668710580174628,0.17454686419921658
3.250261,0.010271613480556269,0.14977463936886115,0.008739765584930158,0.1687860184343476
3.252562,0.010264262962822936,0.1444499243228364,0.0088029800374368,0.16351716732309612
3.254864,0.010269653342494049,0.13917029245224274,0.008876485214770108,0.15831643100950693
3.257166,0.010280434101836265,0.13415968953068905,0.008940189701792308,0.15338031333431762
3.259467,0.010292684964725149,0.12869041430257547,0.009001934050752284,0.1479850333180529
3.261769,0.010301995620520702,0.12386308428983946,0.009078379435178923,0.14324345934553906
3.264071,0.0103064059311607,0.1193390856422322,0.009140123784138905,0.1387856153575318
3.266372,0.0103064059311607,0.11495719700413602,0.0092038282711611,0.13446743120645782
3.2686740000000003,0.010303955758582924,0.11059883002278648,0.009275863344947741,0.13017864912631716
3.270975,0.010302485655036258,0.10657172637395243,0.00933760769390772,0.1262118197228964
3.273277,0.01030003548245848,0.10241672371655834,0.009412582974787692,0.12212934217380453
3.275579,0.010292684964725149,0.09890562641260406,0.009472367185685449,0.11867067856301465
3.27788,0.010277493894742931,0.09513579088443656,0.009466486771498785,0.11487977155067827
3.280182,0.010252992168965164,0.09183491838765552,0.009453255839578787,0.11154116639619947
3.282484,0.010219179787391841,0.08872858959354997,0.009444925252814346,0.10839269463375616
3.284785,0.010176546784538524,0.08560510959140001,0.009433654458956574,0.1052153108348951
3.287087,0.010126563263951876,0.08287463727072544,0.009413073009303248,0.10241427354398057
3.289388,0.01007118936369412,0.08023874161155307,0.009405232457054359,0.09971516343230157
3.29169,0.010007974911187477,0.07796008111422056,0.009397391904805477,0.09736544793021353
3.293992,0.009932019561276392,0.07580000896965246,0.009376810455152148,0.095108838986081
3.296293,0.00983989307235198,0.07393248743087093,0.009366519730325486,0.0931389002335484
3.298595,0.00973600575505424,0.0725236381986492,0.009355248936467712,0.09161489289017116
3.300897,0.009627708127116505,0.0713740172251563,0.00934348810809438,0.09034521346036717
3.3031980000000005,0.009517940395632096,0.07095650781790312,0.009326336900049944,0.08980078511358516
3.3055,0.00940425238802325,0.0711201793460986,0.009318986382316614,0.08984341811643846
3.307801,0.009283213862681073,0.07205859544338716,0.00930967572652106,0.0906514850325893
3.310103,0.009159725164761115,0.07435587725231076,0.009288114207836623,0.0928037166249085
3.3124050000000005,0.0090489773642456,0.07837514034889598,0.00928125372461885,0.09670537143776044
3.314706,0.008962241254992299,0.08471177666954255,0.009264592551089969,0.10293861047562483
3.317008,0.008890206181205658,0.0924842141207664,0.009252831722716638,0.1106272520246887
3.31931,0.008811310624201244,0.1004394344462924,0.00924205096337442,0.11849279603386804
3.321611,0.008712323652059057,0.10675303914470788,0.009231270204032202,0.12469663300079915
3.323913,0.008600105747996875,0.10982457548820898,0.009211668823409984,0.12763635005961582
3.326214,0.008487887843934694,0.10655996554557907,0.009204808340192213,0.124252661729706
3.3285160000000005,0.008381060319543622,0.09733016544509354,0.00919647775342777,0.11490770351806495
3.330818,0.008275702898699215,0.0838140334370451,0.009174916234743334,0.10126465257048768
3.3331190000000004,0.008168875374308144,0.06942367985324588,0.009166095613463337,0.08675865084101736
3.335421,0.008064988057010405,0.05763981985768572,0.009159235130245559,0.0748640430449417
3.3377230000000004,0.00797531174066377,0.049856111612604115,0.009140123784138905,0.06697154713740679
3.340024,0.007909157081063795,0.04525762771863245,0.009129343024796684,0.062296127824492925
3.3423260000000004,0.007866524078210476,0.04211699650843804,0.009118562265454464,0.05910208285210297
3.344627,0.007843492455979373,0.04024751483159427,0.00910631140256558,0.05719731869013923
3.3469290000000003,0.007838592110823819,0.03869802569340816,0.009091120332583365,0.05562773813681535
3.349231,0.007853783180806035,0.03737297236334642,0.009083769814850031,0.054310525359002486
3.351532,0.0078915158385038,0.036461998198928966,0.009072989055507815,0.053426503092940586
3.3538339999999995,0.007949339911339334,0.035576505829320405,0.009053877709401154,0.052579723450060886
3.356135,0.008018924812548197,0.034944851338769525,0.00904799729521449,0.05201177344653221
