Wavelength,H2O_40K,CO_CH3OH_10K,H2O_CH3OH_CO_NH3_100K_NASA,all
2.85208,0.10996093346326744,0.00364315900318234,0.07354333636040003,0.18714742882684984
2.854382,0.11412782780737366,0.003919519350062976,0.07863176502575019,0.1966791121831868
2.8566830000000003,0.11881096128046305,0.004225364797243714,0.08384712954662958,0.20688345562433635
2.858985,0.12317575561980387,0.004573189031292399,0.08898403371586296,0.21673297836695926
2.861286,0.12779142318542694,0.00496049331489546,0.09493952422902126,0.2276914407293437
2.863588,0.1325505182728488,0.005383279668351188,0.09991600946272354,0.23784980740392356
2.8658900000000003,0.13768292471491775,0.005837550111957875,0.1048615103537376,0.2483819851806132
2.868191,0.1425079864674178,0.006318307171088384,0.10980751099221438,0.2586338046307205
2.870493,0.14726108458528714,0.006820053623652865,0.11500638384682425,0.26908752205576425
2.872795,0.1523799978458628,0.007335293257710614,0.11935668550974635,0.2790719766133197
2.875096,0.1576758217082391,0.007854031124007359,0.1243576583691216,0.2898875112013681
2.877398,0.16289718319867108,0.008368771010602395,0.1287394441221947,0.3000053983314682
2.879699,0.16831294645209866,0.008885010139585571,0.13324916522572247,0.3104471218174067
2.882001,0.17374370212940762,0.009412743460211162,0.13755398986953762,0.32071043545915645
2.884303,0.1789650636198396,0.009951970972479162,0.14158095492408407,0.3304979895164029
2.886604,0.1842898728350533,0.010489199494896309,0.14576334143953434,0.340542413769484
2.888906,0.18946225907413936,0.011007937361193059,0.15009715143618696,0.3505673478715194
2.891208,0.19465463521173396,0.011502187601816831,0.1540751412393874,0.36023196405293817
2.893509,0.19998044392187306,0.01197544844900664,0.15799116235721142,0.3699470547280911
2.895811,0.2052892612182799,0.012429718892613323,0.16192467463623034,0.3796436547471236
2.898112,0.21104735148366632,0.012862500195323328,0.16659631391767735,0.39050616559666707
2.900414,0.21622323595499127,0.013267295640121366,0.17056081053938454,0.4000513421344972
2.902716,0.2209678383659945,0.013642106237156584,0.1752239541139654,0.4098338987171165
2.905017,0.22594482334715954,0.013996427188220546,0.17934137345926296,0.4192826239946431
2.907319,0.2309387997420568,0.014342252432418375,0.18376613749412946,0.42904718966860456
2.909621,0.2355239827124543,0.014682580454526356,0.18823387981078926,0.43844044297776985
2.911922,0.2407963184440831,0.015005417315439359,0.19302595823075025,0.4488276939902727
2.9142240000000004,0.2453620112634348,0.015298769076052257,0.19791848589071664,0.4585792662302036
2.916525,0.24996268640517644,0.015552141039648063,0.20323429965160145,0.468749127096426
2.918827,0.2546043408388606,0.01575353926712166,0.2083522134172517,0.4787100935232339
2.921129,0.2590410988128321,0.015893968304144187,0.21330870875244548,0.4882437758694218
2.92343,0.26314552472409913,0.01597642663549194,0.2184875917085468,0.4976095430681378
2.925732,0.26700107639893483,0.016005911735792036,0.22403228980735448,0.5070392779420814
2.928034,0.27151179699738803,0.01598742107967164,0.2299727878966313,0.517472005973691
2.930335,0.2742349209217145,0.015924952646832434,0.23458995470464256,0.5247498282731895
2.932637,0.2788845713148022,0.015822504416976142,0.2417923151372713,0.5364993908690496
2.9349380000000003,0.2830829497490593,0.01568757260204346,0.2475149233328051,0.5462854456839079
2.93724,0.28690801682866945,0.015531651393676809,0.253348975212524,0.5557886434348702
2.939542,0.2905596715387179,0.015365735236055885,0.2595248543567389,0.5654502611315126
2.941843,0.2941598522601069,0.015197820088584103,0.2657152261773727,0.5750728985260637
2.944145,0.2973067620328146,0.015034902415739463,0.2715992528033629,0.583940917251917
2.946447,0.3007645147273301,0.014879980702298238,0.27733285544307634,0.5929773508727048
2.948748,0.3042312628761746,0.014721061009155306,0.2836721520075987,0.6026244758929287
2.95105,0.30755408375575743,0.014546149397205537,0.28957416954224663,0.6116744026952097
2.953351,0.310833926353547,0.014354746118986215,0.2953967272303231,0.6205853997028563
2.955653,0.3120688023339124,0.014168340315394032,0.2993937074371067,0.6256308500864132
2.957955,0.3164750757126584,0.014007421632400246,0.30607733000343873,0.6365598273484974
2.960256,0.3198878511355298,0.013873989059855707,0.3113341735637233,0.6450960137591089
2.962558,0.32150703291472194,0.013755548911192577,0.3149988217078024,0.6502614035337169
2.96486,0.32542705201224764,0.013640606994768444,0.3215660031153221,0.6606336621223382
2.967161,0.3276544264535623,0.013523666088493456,0.3270692221747246,0.6682473147167804
2.969463,0.3310826940477777,0.013400228465203187,0.33200372862155897,0.6764866511345399
2.971764,0.33373135560015993,0.013270294124897644,0.3372870587973674,0.684288708522425
2.974066,0.3364369883632916,0.013141359279517529,0.3426383546281049,0.6922167022709139
2.976368,0.3400386683270687,0.013022419383391687,0.34688121058654364,0.6999422982970039
2.978669,0.3422345586782323,0.01291047595174383,0.35137593926619,0.7065209738961662
2.980971,0.3453090050688465,0.012793035298006131,0.3568976489817129,0.7149996893485655
2.983273,0.3480041431352612,0.01265760373561074,0.3613758859950897,0.7220376328659617
2.985574,0.3506757930709282,0.012501682527244087,0.3664143399141685,0.7295918155123408
2.987876,0.3534194066412261,0.012326271167831604,0.3711889271729345,0.7369346049819921
2.990177,0.35613253561629826,0.012134368142149571,0.3759265331194597,0.7441934368779075
2.992479,0.3588456645913706,0.01193396940960141,0.3805292072510521,0.7513088412520241
2.994781,0.36157428573778705,0.01173307092959053,0.3852193371886195,0.758526693855997
2.997082,0.3643313924895781,0.011535170934355934,0.3899079678837988,0.7657745313077328
2.999384,0.3671049909076387,0.011332773211956916,0.3935951046637,0.7720328687832956
3.001686,0.36986659538659417,0.011118881297915485,0.3986685409051686,0.7796540175896782
3.003987,0.3726237021383853,0.01089249569730621,0.40384042739679205,0.7873566252324835
3.006289,0.3746236914841652,0.010657614389830804,0.4077509512925261,0.793032257166522
3.0085900000000003,0.3773198290455053,0.010417735607728264,0.4121172448742551,0.7998548095274886
3.010892,0.3799974759507249,0.010171859856073159,0.41608923770790296,0.806258573514701
3.013194,0.38233679382368735,0.009920486882328206,0.4202851174048466,0.8125423981108622
3.015495,0.3842648195348365,0.009662117444105259,0.4243990385179052,0.8183259754968469
3.0177970000000003,0.3863902454937576,0.00939475255155347,0.4278183106577918,0.8236033087031028
3.020098,0.3882767921655015,0.009116393214821978,0.4318087941475601,0.8292019795278835
3.0224,0.3896760850610997,0.008831037413612498,0.4348827407907115,0.8333898632654237
3.024702,0.390921455738182,0.00854718085479116,0.4380021644529701,0.8374708010459433
3.027003,0.39214733626421855,0.008272819497761378,0.4416738090615272,0.8420939648235071
3.029305,0.3936990521359444,0.008005454605209588,0.4441210723864357,0.8458255791275897
3.031607,0.3952932465420008,0.007736090722806944,0.4474019144791506,0.8504312517439583
3.0339080000000003,0.39554861749544745,0.007460729870851735,0.4505143416769312,0.8535236890432303
3.03621,0.3964131806059421,0.007190366493523662,0.4525753002131621,0.8561788473126278
3.038511,0.3963996874244488,0.006940992509629562,0.4549700900544858,0.8583107699885641
3.040813,0.3972527563433009,0.006715606403945717,0.4577951624612061,0.8617635252084526
3.043115,0.3974616507827152,0.006501214742441571,0.4597646672117604,0.8637275327369172
3.045416,0.3963252250525045,0.006282825101235716,0.461760158830376,0.8643682089841163
3.047718,0.3963682033342978,0.0060644354600298605,0.4626701989599774,0.8651028377543051
3.05002,0.39601887985786105,0.005862037737630842,0.46493955218816,0.8668204697836518
3.052321,0.3944961493389725,0.005689125115531928,0.4658950693368684,0.8660803437913729
3.054623,0.393801000618338,0.005536202391941557,0.4676107023763643,0.8669479053866438
3.056924,0.39222329787855104,0.00538627815312747,0.4677111516163698,0.8653207276480483
3.059226,0.3916695776898643,0.005232355934611673,0.4687551240659785,0.8656570576904545
3.061528,0.3897105676360269,0.005089428160275576,0.4700949470135137,0.8648949428098162
3.063829,0.38834225908311704,0.004975985486239581,0.4707606106338483,0.8640788552032048
3.066131,0.3863487664543523,0.004890528670115552,0.4711154313323749,0.8623547264568427
3.068433,0.38382953949481297,0.004811068823544085,0.4713043358732808,0.8599449441916378
3.070734,0.3822863193299533,0.0047161168056284964,0.4713183288022366,0.8583207649378184
3.073036,0.3795017264677129,0.004608171353682353,0.4713193282971621,0.8554292261185574
3.075337,0.3767845995129389,0.004501225396661636,0.4713193282971621,0.8526051532067627
3.077639,0.3752228886919588,0.004406273378746047,0.4710579603741629,0.8506871224448678
3.079941,0.3726017132500259,0.004316318835457595,0.4699820040869404,0.8469000361724239
3.082242,0.36890608076325865,0.004219867575153865,0.4700189853991813,0.8431449337375938
3.084544,0.36625342123117466,0.0041109226282822955,0.4694257851609402,0.8397901290203971
3.086846,0.3630590354495092,0.003986985257529315,0.468560722302983,0.8356067430100215
3.089147,0.35996010143322205,0.003849554705283067,0.4674672748545655,0.8312769309930705
3.0914490000000003,0.3569636156467911,0.00370112970885712,0.4658455943380598,0.826510339693708
3.09375,0.3537267513307949,0.0035492064801921773,0.4649100670878599,0.8221860248988471
3.096052,0.35032547009956594,0.003399282241378089,0.4630610014758194,0.8167857538167634
3.098354,0.3469236891208743,0.003250857244952142,0.4619580588256105,0.8121326051914369
3.100655,0.3428627412388634,0.003099433763749913,0.4599770598834137,0.805939234886027
3.102957,0.3398162807061611,0.002944012302845975,0.4586822142075227,0.8014425072165298
3.105259,0.33554343989995955,0.002788091094479324,0.4563688832026213,0.7947004141970602
3.10756,0.3319257680173756,0.0026346686234262405,0.4542309635571323,0.7887914001979341
3.109862,0.3272336390899574,0.0024862436270002932,0.4524553608221109,0.7821752435390685
3.112163,0.32362796114647857,0.0023418166102760554,0.4507412270250031,0.7767110047817577
3.114465,0.3198138885110482,0.0022008878257908124,0.4487272447502672,0.7707420210871062
3.116767,0.3153701340725986,0.002063457273544565,0.4458002238611535,0.7632338152072967
3.119068,0.3116984894640416,0.001931523943388168,0.4430376198872725,0.7566676332947023
3.12137,0.30707482593901514,0.0018060873302470472,0.4411420777611997,0.7500229910304619
3.123672,0.3025810967542942,0.001686147939195777,0.4389092060977953,0.7431764507912852
3.125973,0.298080870852558,0.0015692070329207885,0.4354439571913391,0.7350940350768178
3.128275,0.2936636030296322,0.0014557643588847947,0.43355091380257976,0.7286702811910968
3.130576,0.2893292932855169,0.0013518168866403606,0.4305949075606287,0.7212760177327859
3.132878,0.2850969320237952,0.0012623620908146214,0.4277498452554001,0.7141091393700099
3.13518,0.2799700228038161,0.001184901234094009,0.4249122791621121,0.7060672032000221
3.137481,0.27568768679582306,0.0011129375994632467,0.42208370852315297,0.6988843329184393
3.139783,0.2706432359071917,0.0010394747224443438,0.4193475911647959,0.6910303017944319
3.142085,0.2658026819833475,0.0009660118454254404,0.4160952346774556,0.6828639285062286
3.144386,0.26132144648519445,0.0008965469481082463,0.4124765632999462,0.674694556733249
3.146688,0.2561495599935711,0.0008340785152690433,0.4097619350824857,0.6667455735913259
3.148989,0.2518972088333409,0.000776607557056976,0.4071757419629427,0.6598495583533406
3.151291,0.24673581703843456,0.0007221350836211906,0.40315427413048616,0.6506122262525419
3.153593,0.2416878679175642,0.0006696616000362598,0.400577076465272,0.6429346059828724
3.155894,0.2369317713149186,0.000622685338541179,0.3967934884250671,0.6343479450785269
3.158196,0.2317139080567256,0.0005842047839122298,0.3939624190487944,0.6262605318894323
3.160498,0.2269803000899021,0.0005512214513731302,0.3903997193871089,0.6179312409283841
3.162799,0.2221697310138208,0.0005187378662967446,0.38717984648484505,0.6098683153649626
3.165101,0.2172077384565372,0.0004822563015186498,0.3840689185294528,0.6017589132875086
3.167402,0.2117574926281824,0.0004422765045015597,0.3798210650963869,0.5920208342290709
3.1697040000000003,0.20717730713241198,0.00039979797017090154,0.37668015229323176,0.5842572573958147
3.172006,0.20230277038110325,0.00035881867822838405,0.3731659281354296,0.5758275171947612
3.174307,0.19723533110918706,0.00032633509315199835,0.3691284683841662,0.5666901345865052
3.176609,0.1920499514360705,0.0003083441844943077,0.36597556164190587,0.5583338572624706
3.1789110000000003,0.18741329447701344,0.000305345699718026,0.3624078645055933,0.5501265046823247
3.181212,0.1825377582307793,0.00030934367941973505,0.35882967267256377,0.5416767745827629
3.183514,0.17739685608184425,0.0003138414065841576,0.3548201987792123,0.5325308962676407
3.1858150000000003,0.17240737741411138,0.0003138414065841576,0.3508891852375069,0.5236104040582025
3.188117,0.16739291137324286,0.0003038464573298851,0.3475158898641899,0.5152126476947627
3.190419,0.16297064607568998,0.00028335681135862635,0.3427752854328885,0.5060292883199371
3.19272,0.15850640199126914,0.00026236741792465403,0.33892822946491896,0.4976969988741128
3.1950220000000003,0.15318459126083173,0.0002518727212076679,0.3354544848515965,0.4888909488336359
3.197323,0.14892374439373535,0.0002558707009093769,0.3318822899881196,0.4810619050827643
3.199625,0.1436149270973285,0.0002693638824026448,0.32733059009772386,0.47121488107745496
3.201927,0.13956447391203453,0.0002868550435976218,0.3228973303559913,0.4627486593116234
3.204228,0.13496479826521832,0.0003038464573298851,0.3184915567247079,0.4537602014472562
3.20653,0.13050805039273822,0.00031584039643501216,0.3145390540421058,0.44536294483127903
3.208832,0.12602731464204786,0.0003203381235994348,0.3103691612132234,0.4367168139788706
3.211133,0.12151259606389292,0.00032433610330114384,0.305827456272082,0.427664388439276
3.213435,0.11709932622066888,0.0003363300424062709,0.301216786181086,0.4186524424441612
3.215736,0.11271454198281952,0.00035831893076567037,0.2970533900692188,0.4101262509828039
3.218038,0.10846918728706728,0.00038030781912507005,0.29193397706118035,0.4007834721673727
3.22034,0.10421483713698616,0.0003913022633047698,0.28766263549736704,0.39226877489765793
3.222641,0.1006366453039566,0.000392301758230197,0.2830039896499505,0.3840329367121373
3.224943,0.09638729262850264,0.0003982987277827605,0.277691174373842,0.3744767657301274
3.227245,0.09219990863842516,0.00042028761614216017,0.27299104948702035,0.3656112457415877
3.229546,0.0887286627624163,0.000451271958830405,0.267840152388831,0.3570200871100777
3.231848,0.0849435754798233,0.0004752598370406591,0.2632494721963436,0.34866830751320754
3.234149,0.08124444476081702,0.0004822563015186498,0.2582959753459261,0.3400226764082618
3.236451,0.07780568246988456,0.00047875806927965447,0.25323203430624897,0.3315164748454132
3.238753,0.07433043861417399,0.0004747600895779455,0.2479916824122339,0.3227968811159858
3.241054,0.0713379508074448,0.0004767590794287999,0.2427063532465745,0.3145210631334482
3.2433560000000003,0.06767780039053019,0.0004877535236084998,0.2380871874487125,0.3062527413628512
3.245658,0.06499365676829531,0.0005107419068933267,0.23271140399230206,0.2982158026674907
3.247959,0.061807266946033224,0.0005377282698798624,0.2272961404863372,0.28964113570225025
3.250261,0.05891772711662304,0.000555719178537553,0.2219398471809725,0.2814132934761331
3.252562,0.0562100953636406,0.0005567186734629803,0.21689989401950555,0.27366670805660914
3.254864,0.05370636057544533,0.0005517211988358441,0.2123961698855304,0.26665425165981155
3.257166,0.05121212098904162,0.0005572184209256939,0.20724527278734106,0.2590146121973084
3.259467,0.04869839125159208,0.0005797070567478071,0.20211936306228734,0.25139746137062724
3.261769,0.04623013853324948,0.0006036949349580613,0.19705392278022205,0.2438877562484296
3.264071,0.04384284490386648,0.0006111911468987657,0.19212791204025384,0.2365819480910191
3.266372,0.0418853340924172,0.0006026954400326339,0.1870259901934104,0.22951401972586025
3.2686740000000003,0.0400587571161989,0.0005951992280919295,0.18238083752748724,0.22303479387177808
3.270975,0.0378953503501116,0.0006041946824207747,0.17759875405678055,0.2160982990893129
3.273277,0.03626267538942619,0.000622685338541179,0.17272721579024813,0.2096125765182155
3.275579,0.034488571896792816,0.000632180540332738,0.16796462247058724,0.2030853749077128
3.27788,0.03285489744118197,0.0006221855910784653,0.16357534050557346,0.1970524235378339
3.280182,0.03112027399810297,0.0006061936722716294,0.15896417066711485,0.19069063833748945
3.282484,0.029851415190273067,0.0006001967027190658,0.1544454541092582,0.18489706600225034
3.284785,0.02818725613943669,0.0006121906418241927,0.15012663653648708,0.17892608331774795
3.287087,0.02707132005519717,0.0006376777624225878,0.1460751838562677,0.17378418167388746
3.289388,0.02588591907364044,0.0006696616000362598,0.1416794051742386,0.1682349858479153
3.29169,0.024739998141638096,0.00070964139705335,0.13794379289045428,0.16339343242914572
3.293992,0.023574087311127208,0.0007606156382501401,0.13395330940068595,0.1582880123500633
3.296293,0.02242716688419943,0.0008280815457164796,0.1301552286840624,0.15341047711397832
3.298595,0.02129673812354121,0.0009205348263185006,0.12646959114654938,0.14868686409640908
3.300897,0.020178303301988103,0.001048470176773189,0.12286891067769773,0.144095684156459
3.3031980000000005,0.019518636651206126,0.0012208830514093905,0.11939616555930073,0.14013568526191625
3.3055,0.018382710668458046,0.0014482681469440905,0.11636169896570354,0.13619267778110572
3.307801,0.01763308947438761,0.0017401206651688483,0.11292043793745755,0.13229364807701402
3.310103,0.016614104397914522,0.002095441111158237,0.10996543119043188,0.12867497669950465
3.3124050000000005,0.016101363501170342,0.002502235545807129,0.10717734009595256,0.12578093914292998
3.314706,0.015436699375761219,0.002948510030010398,0.10501843105702967,0.12340364046280128
3.317008,0.01471106605990103,0.003422270624662917,0.10262214197331784,0.1207554786578818
3.31931,0.014032409005535929,0.003911523390659556,0.10098796777024427,0.11893190016643974
3.321611,0.01354215674461386,0.004403274893969766,0.09965314229733617,0.1175985739359198
3.323913,0.01261512520128008,0.004879534225935852,0.09865614610922248,0.11615080553643843
3.326214,0.012178845666331085,0.005321310982974699,0.09847173929548116,0.11597189594478695
3.3285160000000005,0.011709083051380277,0.005707615771652332,0.0985207145468271,0.11593741336985973
3.330818,0.011074903521196684,0.006016459703609353,0.09979607007167228,0.11688743329647833
3.3331190000000004,0.01077955277073293,0.006224854395560936,0.1010804210508463,0.11808482821714016
3.335421,0.01009190026203898,0.006327802372879943,0.10240575132196283,0.11882545395688175
3.3377230000000004,0.009650623252462848,0.006332799847507079,0.1037100921996454,0.11969351529961532
3.340024,0.009352274017222809,0.006251840758547471,0.10498594747195328,0.12059006224772358
3.3423260000000004,0.008922990946751808,0.0061319013674962005,0.10561612902243517,0.12067102133668316
3.344627,0.00855567656165729,0.006028453642714479,0.10568909215199136,0.12027322235636312
3.3469290000000003,0.008051931119241955,0.005983976118532968,0.10502092979434324,0.11905683703211815
3.349231,0.0077210982989255345,0.00601046273405679,0.10322833564558948,0.1169598966785718
3.351532,0.007462728860702591,0.0061134107113757965,0.10104293999114278,0.11461907956322115
3.3538339999999995,0.007035444780082438,0.006296318282728985,0.09872561100653968,0.11205737406935112
3.356135,0.006581674083938465,0.006555687215877357,0.0965182264637336,0.10965558776354943
3.3584370000000003,0.006590669538267311,0.0068890187735073435,0.09504647018604197,0.10852615849781662
3.360739,0.005997969047488947,0.0072943139657680985,0.09447425934123488,0.10776654235449193
