Wavelength,d_NH3_CH3OH_50_10K_I10m_Baselined,H2O_CH4_10_0.6_a_V3,H2O_40K,all
2.85208,0.0013356862525870554,0.2334381951938311,0.1061759585316068,0.34094983997802497
2.854382,0.0013931091803536235,0.243128676163648,0.11019942384015842,0.3547212091841601
2.8566830000000003,0.0014481193800627724,0.2531053066810748,0.11472135876537275,0.3692747848265103
2.858985,0.0015065073990523075,0.2630732513774949,0.11893591213607195,0.3835156709126191
2.861286,0.001570685965379648,0.27369938828797885,0.12339270340373598,0.3986627776570945
2.863588,0.0016411376246562776,0.2848167566309533,0.12798798526189584,0.41444587951750544
2.8658900000000003,0.0017178623768821961,0.2953145364087825,0.1329437286918341,0.4299761274774988
2.868191,0.0018042380413377894,0.3066818633785055,0.1376027065707098,0.44608880799055306
2.870493,0.0019017122548575093,0.3181852682106669,0.1421921978815319,0.4622791783470563
2.872795,0.0020015991964346482,0.3295323282647076,0.14713491257996006,0.4786688400411023
2.875096,0.002092317771393596,0.3409652814375924,0.15224844842485352,0.4953060476338395
2.877398,0.0021632519762817093,0.3527688296400968,0.15729008497363586,0.5122221665900143
2.879699,0.0022255003601631147,0.3645053040026048,0.1625194317652854,0.5292502361280533
2.882001,0.002293056745770841,0.3761409263323128,0.16776325492527944,0.5461972380033631
2.884303,0.002374124408500113,0.3869769705837922,0.17280489147406186,0.5621559864663541
2.886604,0.0024629128010131263,0.3995313597577652,0.1779464149644213,0.5799406875231996
2.888906,0.002550736102303171,0.4118343426681553,0.18294076204327825,0.5973258408137367
2.891208,0.0026327688562554105,0.4233512587774383,0.18795441094659454,0.6139384385802883
2.893509,0.002703703061143524,0.4348623843393834,0.19309689952817705,0.6306629869287039
2.895811,0.002762091080133059,0.4463913640889535,0.19822298155896906,0.6473764367280556
2.898112,0.00281999655351111,0.458190086835343,0.20378287209448492,0.6647929554833389
2.900414,0.002897686396959996,0.4692085333279632,0.20878059699262225,0.6808868167175455
2.902716,0.0029975733385371353,0.4808431905664482,0.21336188502804912,0.6972026489330344
2.905017,0.003073332999540086,0.4915648715080059,0.21816755677281596,0.712805761280362
2.907319,0.0030699551802597,0.5029698370354247,0.2229896350683732,0.7290294272840576
2.909621,0.003000951157817521,0.5126482543649545,0.2274169910537367,0.7430661965765087
2.911922,0.0029739286035744307,0.5213360055541082,0.2325078472548904,0.756817781412573
2.9142240000000004,0.003092634823999437,0.5336095531821976,0.23691638396140605,0.7736185719676031
2.916525,0.0033512792717547337,0.5433502188956089,0.2413586988607256,0.7880601970280892
2.918827,0.003669759375334017,0.5534561716369134,0.24584058250018676,0.8029665135124341
2.921129,0.003990169661359236,0.5632812828323343,0.2501246224389396,0.8173960749326329
2.92343,0.0043651076014821185,0.5724274523523976,0.2540877695460557,0.8308803294999354
2.925732,0.004880948860158262,0.5818037961291385,0.25781060893865304,0.8444953539279496
2.928034,0.005615383280836549,0.5903458185436241,0.2621660656279054,0.8581272674523659
2.930335,0.006629694156175418,0.5982233756510965,0.2647954566648804,0.8696485264721523
2.932637,0.007980821868329954,0.6077821216689784,0.2692850610341254,0.8850480045714337
2.9349380000000003,0.009672144236580544,0.6153132110274054,0.2733389267162005,0.8983242819801864
2.93724,0.011651063789275455,0.623170018673584,0.2770323308264972,0.9118534132893568
2.939542,0.013853401960087348,0.6307546705948859,0.28055829160960905,0.9251663641645822
2.941843,0.01612860451823329,0.6352785357025461,0.2840345501947381,0.9354416904155176
2.944145,0.01828654849278868,0.6437920879259541,0.2870731399102513,0.949151776328994
2.946447,0.020173784379301674,0.6525478780463271,0.29041187299610743,0.963133535421736
2.948748,0.021749778346407646,0.6555430386568067,0.29375929190297034,0.9710521089061848
2.95105,0.02299957148015059,0.6641994243812139,0.29696773767372586,0.9841667335350904
2.953351,0.023939570331320964,0.6704821682427325,0.3001346845218938,0.9945564230959474
2.955653,0.024636366194303518,0.6771065543971817,0.3013270547278701,1.0030699753193555
2.957955,0.025157998000317462,0.6816391053258486,0.3055816593843225,1.0123787627104883
2.960256,0.025528593029936996,0.6882716947556929,0.30887696336514514,1.0226772511507751
2.962558,0.025746221100716168,0.6922343593171977,0.3104404111463525,1.0284209915642664
2.96486,0.02580219639164829,0.6981923499821877,0.31422549892283114,1.0382200452966672
2.967161,0.02566370580115245,0.7024826630138898,0.3163762047132143,1.0445225735282566
2.969463,0.02529166313469847,0.7057441888019086,0.3196864676079929,1.0507223195446
2.971764,0.024664836385381056,0.7114285761051873,0.3222439593488569,1.0583373718394251
2.974066,0.023803975014494026,0.7168663826009978,0.32485646128943,1.0655268189049218
2.976368,0.02273754921311491,0.7211243650767306,0.32833416751139344,1.072196081801239
2.978669,0.02152249936339879,0.7259937328422131,0.3304544729282531,1.077970705133865
2.980971,0.020249061494693143,0.7310585315803467,0.3334230935301012,1.0847306866051412
2.983273,0.019005058908288,0.7348928390091968,0.3360254620128332,1.089923359930318
2.985574,0.017849362168784386,0.7368606600128276,0.3386051508518253,1.0933151730334374
2.987876,0.016829260746107712,0.7429831987313336,0.3412543262588712,1.1010667857363123
2.990177,0.015976120105004418,0.748079845479825,0.3438740663836165,1.1079300319684455
2.992479,0.015276428968352962,0.7508626860212522,0.3464938065083619,1.1126329214979669
2.994781,0.01470509496435619,0.7552031837965483,0.3491285055470632,1.1190367843079678
2.997082,0.01423847335805139,0.7584111470216923,0.35179070968561915,1.1244403300653631
2.999384,0.013853884505698834,0.7625774458312432,0.3544688378293541,1.1309001681662958
3.001686,0.013529613854781743,0.7671500480456633,0.3571353848784133,1.1378150467788584
3.003987,0.013261318494796772,0.7703642843637567,0.35979758901696923,1.1434231918755229
3.006289,0.013056236609916172,0.7730979052528121,0.3617287365541272,1.1478828784168555
3.0085900000000003,0.012919193656254786,0.7770070072514421,0.36433207012808216,1.1542582710357792
3.010892,0.012839573630359964,0.7804702371050611,0.3669175495144122,1.1602273602498332
3.013194,0.012801935072664231,0.7829881601057834,0.3691763455217677,1.1649664407002154
3.015495,0.012794214342880491,0.7866888024002523,0.371038006490872,1.1705210232340049
3.0177970000000003,0.012807243074390552,0.7894050516472945,0.3730902729765125,1.1753025676981974
3.020098,0.012833783083022157,0.7920281695913202,0.3749118826598637,1.179773835334206
3.0224,0.012864183456545634,0.7931235481293885,0.3762630103720182,1.1822507419579522
3.024702,0.01288541546345092,0.7931476754099626,0.3774655140358357,1.183498604909249
3.027003,0.012886380554673888,0.7941677768326392,0.3786491984208054,1.1857033558081185
3.029305,0.01286852636704899,0.7986380793774247,0.3801475025444625,1.1916541082889365
3.031607,0.012839573630359964,0.8003207159246687,0.3816868230450957,1.1948471126001243
3.0339080000000003,0.012807725620002037,0.8007907153502538,0.3819334038525639,1.1955318448228196
3.03621,0.012783598339427849,0.8011907456621737,0.3827682077604308,1.1967425517620325
3.038511,0.012777325246478559,0.8000963322153288,0.3827551790289208,1.1956288364907282
3.040813,0.012794696888491972,0.8016211763476174,0.3835788843877235,1.197994757623833
3.043115,0.012832335446187709,0.8011806122043327,0.3837805884533237,1.197793536103844
3.045416,0.012886380554673888,0.7997416611908881,0.3826832797328097,1.1953113214783715
3.047718,0.012951041666612713,0.7985270938867836,0.3827247786553972,1.1942029142087935
3.05002,0.013021010780277856,0.797084282508447,0.3823874792729701,1.1924927725616952
3.052321,0.01309049734833152,0.7953447055790481,0.3809171627947791,1.1893523657221587
3.054623,0.013164326826888536,0.7931891743325501,0.3802459418492052,1.1865994430086435
3.056924,0.01324828976328671,0.7882686567322501,0.3787225453537509,1.1802394918492878
3.059226,0.01334431633997198,0.7867032787685969,0.37818788481622695,1.1782354799247958
3.061528,0.013442755644714666,0.7841950066801041,0.37629630601921055,1.1739340683440294
3.063829,0.01353299167406213,0.7799466751166012,0.374975096134968,1.1684547629256312
3.066131,0.013605856061396178,0.777380015009119,0.3730502216907593,1.1640360927612745
3.068433,0.01365748844182494,0.7721883067751653,0.3706177092632697,1.1564635044802598
3.070734,0.013683545904845064,0.7679144002942536,0.3691276084150078,1.1507255546141066
3.073036,0.01368306335923358,0.7631854533017127,0.3664388642678203,1.1433073809287666
3.075337,0.01365604080499049,0.7586794423816773,0.3638152637781831,1.1361507469648509
3.077639,0.013604890970173212,0.7538771484561909,0.3623073087422963,1.1297893481686605
3.079941,0.013538299675788451,0.7471504626321073,0.35977635701006394,1.1204651193179598
3.082242,0.013466400379677371,0.7423510639802897,0.3562079322131416,1.1120253965731086
3.084544,0.013398361448458162,0.7366604035840617,0.3536465801073857,1.1037053451399057
3.086846,0.013341421066303078,0.7312558927354436,0.35056214855878154,1.0951594623605283
3.089147,0.013302334871772892,0.7248896684831384,0.3475698832219707,1.085761886576882
3.0914490000000003,0.013291236322708766,0.7187536184875108,0.34467653973551404,1.0767213945457337
3.09375,0.013318258876951856,0.7103838648563249,0.3415510918099337,1.0652532155432104
3.096052,0.01339064071867442,0.7051110889596418,0.3382668863781752,1.0567686160564915
3.098354,0.013493905479531946,0.6985952755677766,0.33498219840080523,1.0470713794481137
3.100655,0.013605856061396178,0.6915037852614112,0.3310610327618882,1.0361706740846957
3.102957,0.0137033302749159,0.6843872025832487,0.3281194347142832,1.0262099675724476
3.105259,0.013761718293905434,0.6766650251626739,0.32399366973609695,1.0144204131926764
3.10756,0.013756410292179113,0.6691807427285608,0.32050052205456603,1.0034376750753058
3.109862,0.01368692372412545,0.6613977645609392,0.31596990130834496,0.9910545895934098
3.112163,0.013577385870318636,0.6534154950557748,0.3124883347214896,0.9794812156475832
3.114465,0.013453854193778793,0.6454428764628402,0.3088055466146456,0.9677022772712645
3.116767,0.013328392334793014,0.6371874861415758,0.30451475103733194,0.9550306295137008
3.119068,0.013207755931922074,0.6285725993397563,0.30096948842976073,0.9427498437014391
3.12137,0.013098218078115259,0.6203876606777686,0.2965049764323129,0.9299908551881968
3.123672,0.013006051866321859,0.6116642011133653,0.29216592629385096,0.916836179273538
3.125973,0.012938978026325616,0.6027438629394765,0.2878206030624397,0.9035034440282416
3.128275,0.012897479103738016,0.5939576724455801,0.28355538240253464,0.8904105339518528
3.130576,0.01286852636704899,0.5850117593542825,0.27937026431413603,0.8772505500354675
3.132878,0.01283909108474848,0.5757787316241523,0.27528358553048,0.8639014082393808
3.13518,0.0128057954375561,0.5665900980902784,0.27033315010226805,0.8497290436301026
3.137481,0.012771534699140752,0.5572755201518073,0.2661982167574637,0.8362452716084117
3.139783,0.01273920414317134,0.5483870299882764,0.26132740135514665,0.8224536354865943
3.142085,0.01270542595036748,0.5390295054903833,0.2566534645623149,0.8083883960030658
3.144386,0.012666339755837292,0.5293341990644516,0.25232647806414,0.7943270168844289
3.146688,0.012617602649077431,0.5200360276767709,0.2473326135308945,0.7799862438567429
3.148989,0.01255680190203048,0.5112647960968305,0.2432266329227792,0.7670482309216402
3.151291,0.012483454969084946,0.5011173444329385,0.2382429018473749,0.7518437012493985
3.153593,0.012398526941463804,0.4919899941917231,0.2333687086257774,0.7377572297589643
3.155894,0.012308773457727826,0.4825837325870702,0.22877632204128645,0.7236688280860846
3.158196,0.012218537428380359,0.4730264342060227,0.22373806331178445,0.7089830349461875
3.160498,0.012128301399032895,0.4635762609507246,0.21916739127981028,0.6948719536295678
3.162799,0.012032274822347628,0.45438473214318204,0.2145224072236676,0.6809394141891972
3.165101,0.01192707987904417,0.4444621467342414,0.2097312118472453,0.6661204384605308
3.167402,0.01181078638667658,0.4355649707497037,0.20446856940840336,0.6518443265447837
3.1697040000000003,0.011681946708410416,0.4260950131243349,0.2000460388791547,0.6378229987119001
3.172006,0.011544421209137543,0.4156088144411813,0.19533928898474207,0.6224925246350609
3.174307,0.011407378255476157,0.4067791948422513,0.19044627648429668,0.6086328495820241
3.176609,0.011281916396490378,0.39793509887497697,0.1854393832195412,0.5946563984910086
3.1789110000000003,0.011168035632180207,0.3887744529865692,0.1809623250361948,0.5809048136549442
3.181212,0.011057050141538944,0.3792475549790453,0.17625461005055926,0.5665592151711435
3.183514,0.010941239194782841,0.3703735411838589,0.17129066334522575,0.5526054437238676
3.1858150000000003,0.010822050428746352,0.3609986450439524,0.16647292796017188,0.5382936234328706
3.188117,0.01070527439076728,0.35213862507149896,0.1616310652945438,0.5244749647568101
3.190419,0.010595253991348984,0.3429292420763313,0.15736101917852402,0.5108855152462043
3.19272,0.010493436867325907,0.3343172505481806,0.15305043923113953,0.4978611266466461
3.1950220000000003,0.01040127065553251,0.3250432064410742,0.14791181101444892,0.4833562881110557
3.197323,0.01031682517352285,0.3165846644173753,0.14379762713093838,0.4706991167218365
3.199625,0.010238170238850998,0.3081724467723789,0.13867154510014634,0.4570821621113762
3.201927,0.010161928032236565,0.29948662576567114,0.13476051291907046,0.4444090667169782
3.204228,0.010092924009794384,0.2905918625091909,0.1303191631109739,0.4310039496299593
3.20653,0.010039843992531172,0.28246145150130103,0.1260158213477617,0.4185171168415939
3.208832,0.01000896107339621,0.2735551071501452,0.12168931739519832,0.4052533856187397
3.211133,0.00999496725066318,0.2659289563062558,0.11733000034105398,0.3932539238979729
3.213435,0.009988211612102407,0.2580378879216619,0.11306864004604088,0.3810947395798052
3.215736,0.009984833792822022,0.2501333082599463,0.10883478485088233,0.3689529269036506
3.218038,0.009988694157713892,0.24224513514902124,0.10473555988132777,0.3569693891880629
3.22034,0.010004135617281373,0.2348655651126001,0.10062764909076648,0.34549734982064795
3.222641,0.010030193080301496,0.2272833259193557,0.09717262251254276,0.3344861415122
3.224943,0.010057215634544588,0.2197010867261113,0.09306953717809632,0.3228278395387522
3.227245,0.010078930187061356,0.2122969068635045,0.08902628749947387,0.3114021245500397
3.229546,0.010096784374686257,0.20524739802533815,0.08567452568210766,0.3010187080821321
3.231848,0.01011512110792264,0.19821960373968864,0.08201972522072963,0.2903544500683409
3.234149,0.010137318206050893,0.19125888329403531,0.07844792260452682,0.2798441241046131
3.236451,0.010159997849790629,0.18434448722708446,0.07512752625190705,0.26963201132878223
3.238753,0.010177852037415528,0.1780178317149209,0.07177190406964895,0.25996758782198537
3.241054,0.010186537858422237,0.17162892781887587,0.0688824209480842,0.2506978866253823
3.2433560000000003,0.010183160039141848,0.16514882280226045,0.0653482568895771,0.24068023973097935
3.245658,0.01016434076029398,0.1590841895571325,0.06275650441029781,0.2320050347277243
3.247959,0.010137318206050893,0.15320581891803728,0.059679793591477334,0.22302293071556556
3.250261,0.010114638562311156,0.1474857232395088,0.056889714865878224,0.21449007666769812
3.252562,0.010107400378138898,0.1422423826251262,0.0542752827428592,0.2066250657461243
3.254864,0.01011270837986522,0.13704343620700016,0.05185772922932555,0.19901387381619093
3.257166,0.01012332438331786,0.13210940732957868,0.049449344082410085,0.19168207579530666
3.259467,0.010135388023604957,0.1267237157598084,0.04702213965664676,0.1838812434400601
3.261769,0.010144556390223148,0.12197015894108185,0.044638846881528464,0.17675356221283345
3.264071,0.0101488993007265,0.11751529785586375,0.042333726495470514,0.16999792365206076
3.266372,0.0101488993007265,0.11320037499797594,0.04044359533528862,0.16379286963399106
3.2686740000000003,0.010146486572669082,0.10890861432943937,0.03867989112531547,0.15773499202742391
3.270975,0.01014503893583463,0.1049430544942658,0.036590951173202255,0.15167904460330267
3.273277,0.010142626207777212,0.10085155025449496,0.0350144746604848,0.146008651122757
3.275579,0.010135388023604957,0.0973941109482138,0.03330143773971745,0.1408309367115362
3.27788,0.010120429109648959,0.0936818875590692,0.031723996135777026,0.1355263128044952
3.280182,0.010096301829074773,0.09043146032011458,0.03004908031831689,0.13057684246750625
3.282484,0.01006300618188239,0.08737260368891901,0.028823897010759613,0.12625950688156098
3.284785,0.010021024713683305,0.08429685796132151,0.02721702012451868,0.1215349027995235
3.287087,0.00997180506131196,0.08160811381413398,0.02613949577407544,0.11771941464952138
3.289388,0.009917277407214296,0.07901250096996283,0.024994897583635958,0.11392467596081307
3.29169,0.00985502902333289,0.07676866387656332,0.023888420496503682,0.1105121133963999
3.293992,0.009780234453552908,0.07464160282114289,0.02276264158491207,0.10718447885960786
3.296293,0.009689515878593959,0.07280262149577828,0.021655199406556826,0.10414733678092906
3.298595,0.0095872162089594,0.07141530286276246,0.020563681233380555,0.1015662003051024
3.300897,0.00948057362882149,0.07028325085822155,0.01948374415487989,0.09924756864192294
3.3031980000000005,0.009372483411849129,0.06987212199723739,0.018846783947721327,0.09809138935680783
3.3055,0.009260532829984892,0.07003329223147295,0.017749957772818733,0.09704378283427656
3.307801,0.009141344063948405,0.07095736707746438,0.017026139355593092,0.09712485049700588
3.310103,0.009019742569854496,0.07321954090410024,0.016042228853777697,0.09828151232773244
3.3124050000000005,0.008910687261659165,0.07717738000949008,0.015547137056395356,0.1016352043275446
3.314706,0.008825276688426541,0.08341717731158661,0.014905351393121952,0.1071478053931351
3.317008,0.008754342483538426,0.09107083325533058,0.014204695165247527,0.11402987090411655
3.31931,0.00867665264008954,0.09890447871215798,0.01354939822485258,0.1211305295771001
3.321611,0.008579178426569821,0.10512159637051477,0.013076020979987007,0.1267767957770716
3.323913,0.008468675481540039,0.108146192263295,0.012180898870684628,0.12879576661551967
3.326214,0.008358172536510257,0.10493147339959018,0.011759636551859302,0.12504928248795974
3.3285160000000005,0.008252977593206798,0.09584272680729353,0.011306043677064564,0.11540174807756487
3.330818,0.008149230286737787,0.08253315375134836,0.010693693296091671,0.10137607733417782
3.3331190000000004,0.008044035343434326,0.06836271932451618,0.010408508839704766,0.08681526350765525
3.335421,0.00794173567379977,0.05675894500516612,0.009744526078303109,0.074445206757269
3.3377230000000004,0.007853429826898241,0.049094190512358034,0.009318438303362946,0.06626605864261922
3.340024,0.007788286169347934,0.044565982494194405,0.009030358573307138,0.061384627236849475
3.3423260000000004,0.0077463047011488454,0.041473347670194984,0.008615851893042589,0.05783550426438641
3.344627,0.007723625057409109,0.03963243616238442,0.00826118086860202,0.05561724208839555
3.3469290000000003,0.007718799601294271,0.03810662693887276,0.007774774892226387,0.05360020143239341
3.349231,0.007733758515250269,0.03680182360542066,0.007455329697424138,0.051990911818095065
3.351532,0.007770914527334518,0.03590477131367235,0.007205853616287033,0.0508815394572939
3.3538339999999995,0.007827854909489602,0.035032811393721185,0.006793277118468414,0.0496539434216792
3.356135,0.007896376386320297,0.034410810100518614,0.006355125703241157,0.04866231219008007
3.3584370000000003,0.007967793136819893,0.03356297746114164,0.006363811524247865,0.0478945821222094
3.360739,0.00803148915753575,0.03288114051211508,0.005791512429028122,0.046704142098678965
3.3630400000000003,0.008076848445015224,0.03228181886265225,0.005595598910765714,0.04595426621843319
3.365342,0.008093737541417154,0.031762117239084245,0.005309931908767327,0.045165786689268725
