Wavelength,H2O_CH4_10_0.6_a_V3,H2O_CH3OH_CO_NH3_120K_NASA,CO_CH3OH_10K,all
2.85208,0.24085885498437384,0.055919459568539547,0.0036295818887641202,0.3004078964416775
2.854382,0.25085738221210513,0.05949825718396293,0.0039049123118761295,0.3142605517079441
2.8566830000000003,0.2611511552642585,0.06335537253269484,0.004209617951920524,0.3287161457488739
2.858985,0.2714359663858223,0.06753262795748646,0.004556145934716112,0.3435247402780248
2.861286,0.2823998926920603,0.07137829195046508,0.004942006835099128,0.3587201914776245
2.863588,0.2938706659616401,0.07545298305850974,0.0053632175728075574,0.37468686659295736
2.8658900000000003,0.3047021548491659,0.07966857563082329,0.005815795067579379,0.3901865255475686
2.868191,0.3164308325657113,0.08385529087123719,0.006294760469087073,0.4065808839060355
2.870493,0.3282999138614929,0.08807038555851801,0.00679463704197036,0.4231649364619813
2.872795,0.3400076804066628,0.09243932672091927,0.007307956510737962,0.43975496363832006
2.875096,0.3518040704876626,0.0963795888701208,0.00782476117473483,0.4560084205325182
2.877398,0.3639828362738161,0.10046125036862401,0.008337582758469677,0.4727816694009098
2.879699,0.37609239604041705,0.1045220006957516,0.008851897997302781,0.4894662947334714
2.882001,0.3880978978351727,0.10856482716170007,0.009377664591889188,0.506040389588762
2.884303,0.399278404130658,0.11277394722858786,0.009914882542228895,0.5219672339014748
2.886604,0.412231879027774,0.11675155075524582,0.010450108952437595,0.5394335387354574
2.888906,0.42492595582282616,0.12104431550763595,0.010966913616434466,0.5569371849468966
2.891208,0.4368089778995248,0.12460269983671653,0.011459321913826469,0.5728709996500678
2.893509,0.4486860253558304,0.12900350564121393,0.011930819039842878,0.5896203500368872
2.895811,0.4605814945583479,0.13363433433084287,0.0123833965346147,0.6065992254238055
2.898112,0.4727552814941739,0.1379126604172832,0.012814564972978174,0.6234825068844353
2.900414,0.4841239883320394,0.1421675859071842,0.013217851849507524,0.6395094260887312
2.902716,0.4961284943567296,0.14664904908698748,0.013591265624071732,0.6563688090677888
2.905017,0.5071910018994525,0.15154724203920442,0.013944266112293095,0.6726825100509499
2.907319,0.5189585146485527,0.15580764426446564,0.014288802554957675,0.6890549614679761
2.909621,0.5289445947504652,0.1605709103728067,0.014627862262261978,0.7041433673855338
2.911922,0.5379085168801372,0.1655154066330696,0.01494949599341995,0.7183734195066268
2.9142240000000004,0.5505722226881914,0.17048131194974084,0.015241754507645538,0.7362952891455777
2.916525,0.5606225299593289,0.17579474101927314,0.01549418221925094,0.751911453197853
2.918827,0.57104973620026,0.1811465072363274,0.015694829887450114,0.7678910733240375
2.921129,0.5811871733521292,0.18639620702166748,0.015834735581653502,0.7834181159554502
2.92343,0.5906240862629158,0.19181668137324154,0.015916886612057632,0.7983576542482149
2.925732,0.6002984903343254,0.19736262275306915,0.015946261828990012,0.8136073749163846
2.928034,0.6091120511841062,0.20353639715919744,0.015927840082778182,0.8285762884260818
2.930335,0.6172400243437872,0.2086476849054324,0.015865604453684148,0.8417533137029037
2.932637,0.6271026289575771,0.2164166829564989,0.015763538021969926,0.8592828499360459
2.9349380000000003,0.6348731206637419,0.22258747005243065,0.015629109063126808,0.8730896997792994
2.93724,0.6429796847670145,0.2287159369205785,0.015473768932908104,0.887169390620501
2.939542,0.6508054417118149,0.2357719636047438,0.015308471102034343,0.9018858764185932
2.941843,0.6554731138938674,0.2423913451151853,0.015141181731029575,0.9130056407400824
2.944145,0.6642572995267161,0.24894052483600884,0.014978871210352334,0.9281766955730772
2.946447,0.6732914234460061,0.2551725517909691,0.014824526850199127,0.9432885020871744
2.948748,0.6763817958442996,0.26109837945078673,0.014666199409783903,0.9521463747048702
2.95105,0.6853133554468427,0.2681255288030525,0.014491939648320606,0.9679308238982156
2.953351,0.6917958185732773,0.27411110266680033,0.01430124968077648,0.9802081709208542
2.955653,0.6986307843029006,0.2783281888942121,0.014115538563559881,0.9910745117606724
2.957955,0.7033074184155428,0.28608374404939435,0.013955219583013649,1.003346382047951
2.960256,0.7101508481907229,0.2910486535960001,0.013822284279268791,1.0150217860659918
2.962558,0.7142394800796846,0.2960728114615034,0.013704285526506498,1.0240165770676946
2.96486,0.7203868665790771,0.3032996127119028,0.013589771968973477,1.0372762512599534
2.967161,0.7248135624052775,0.3085149584299829,0.01347326687130944,1.0468017877065696
2.969463,0.7281787673416502,0.3145976198751175,0.013350289268219628,1.0561266764849873
2.971764,0.7340438530274721,0.31967903451938723,0.013220839159704036,1.0669437267065631
2.974066,0.7396545194615574,0.32475547031332946,0.013092384821253944,1.0775023745961407
2.976368,0.7440478569905636,0.3299444281246738,0.012973888183458905,1.0869661732986964
2.978669,0.7490720148560668,0.3351284070856905,0.01286236193612239,1.0970627838778797
2.980971,0.7542978161598347,0.34027454678421803,0.012745358953425608,1.1073177218974783
2.983273,0.7582540106300844,0.34565120725290993,0.01261043210954974,1.116515649992544
2.985574,0.7602843857936482,0.3508809916369399,0.01245509197933103,1.123620469409919
2.987876,0.7666015510892091,0.35567263719214776,0.01228033433283498,1.134554522614192
2.990177,0.7718602128051387,0.3609308010230447,0.012089146480258104,1.1448801603084415
2.992479,0.7747315157890211,0.36631044880193303,0.011889494582124441,1.1529314591730786
2.994781,0.7792099916586278,0.37104633123347264,0.011689344798958022,1.1619456676910584
2.997082,0.7825199313563649,0.3759808697930805,0.01149218232598812,1.1699929834754337
2.999384,0.7868186707291481,0.38028209859102746,0.011290538887723448,1.1783913082078992
3.001686,0.7915366292995087,0.385840487096674,0.011077444093705473,1.1884545604898882
3.003987,0.7948530415026717,0.3911439584655512,0.010851902173868687,1.1968489021420914
3.006289,0.7976735602132133,0.3959978396498532,0.010617896208475116,1.2042892960715417
3.0085900000000003,0.8017069268635396,0.4009567745760659,0.010378911392754023,1.2130426128323597
3.010892,0.8052802477436026,0.4052077169857049,0.0101339519566399,1.220621916685947
3.013194,0.8078782118445041,0.4104982433437306,0.009883515785165504,1.2282599709734003
3.015495,0.8116964921606813,0.4147661138444831,0.009626109223232577,1.236088715228397
3.0177970000000003,0.8144990870100439,0.41902054144935136,0.009359740730710105,1.2428793691901052
3.020098,0.8172055900480852,0.4238266256705091,0.009082418767467085,1.2501146344860614
3.0224,0.8183357890724331,0.4285027618981185,0.008798126413765534,1.255636677384317
3.024702,0.8183606833240706,0.4325694868456391,0.00851532771516224,1.2594454978848721
3.027003,0.8194132122833089,0.4367432570752015,0.008241988832181238,1.2643984581906915
3.029305,0.824025619226726,0.4405500860356255,0.007975620339658767,1.2725513256020102
3.031607,0.8257617443359332,0.444484373564434,0.007707260307005291,1.2779533782073724
3.0339080000000003,0.8262466843578339,0.4490743756813772,0.007432925653958783,1.2827539856931698
3.03621,0.8266594310499854,0.4521552882640483,0.0071635698512398,1.2859782891652736
3.038511,0.8255302277957035,0.4561035165737738,0.006915125219896412,1.288548869589374
3.040813,0.8271035444992006,0.45979135101137,0.006690579070125134,1.2935854745806956
3.043115,0.8266489754642977,0.4630599662513887,0.006476986391074406,1.2961859281067607
3.045416,0.8251642822966304,0.4662777972180667,0.00625941063176166,1.2977014901464587
3.047718,0.823911105669193,0.4696345381088826,0.006041834872448914,1.2995874786505246
3.05002,0.8224224294212636,0.4728777612122309,0.0058401914341842396,1.3011403820676788
3.052321,0.8206275538781918,0.4762618857798482,0.005667923212851952,1.3025573628708922
3.054623,0.8184035014368872,0.4780383395767082,0.005515570392829754,1.3019574114064252
3.056924,0.8133265677579122,0.481467771682306,0.00536620488300407,1.3001605443232225
3.059226,0.8117114287116639,0.4839711376269845,0.005212856292916368,1.3008954226315648
3.061528,0.8091234223114174,0.487039105198804,0.005070461173549218,1.3012329886837708
3.063829,0.8047400424830664,0.4889962912625532,0.004957441271114449,1.2986937750167342
3.066131,0.802091791993857,0.4910913914803749,0.0048723029305138095,1.2980554864047456
3.068433,0.7967350469264752,0.4930495733141895,0.004793139210306197,1.2945777594509709
3.070734,0.7923252791913884,0.4946467884992588,0.004698541054083264,1.2916706087447305
3.073036,0.7874460058704159,0.4961583674586948,0.004590997887008771,1.2881953712161194
3.075337,0.7827967554345752,0.4977157518411439,0.004484450489999783,1.2849969577657188
3.077639,0.7778418035886245,0.4985148573187114,0.00438985233377685,1.2807465132411129
3.079941,0.7709012862320578,0.4992029344339749,0.00430023302788144,1.274404453693914
3.082242,0.7659493216963036,0.4997257137183648,0.0042041412165602495,1.2698791766312287
3.084544,0.760077763505056,0.5012462546083903,0.004095602279420253,1.2654196203928667
3.086846,0.7545014511382304,0.5012333095975389,0.0039721267912976865,1.2597068875270672
3.089147,0.7479328539011296,0.5012114026560976,0.00383520840729081,1.252979464964518
3.0914490000000003,0.7416017478246517,0.4999945716360511,0.003687336552563383,1.2452836560132658
3.09375,0.7329659319315633,0.4998646236425027,0.0035359795026066896,1.2363665350766728
3.096052,0.7275255421786792,0.4985213298241372,0.003386613992781007,1.2294334859955969
3.098354,0.7208026005814251,0.4984770180562221,0.0032387421380535787,1.2225183607757006
3.100655,0.7134856821400977,0.4970605351380419,0.0030878829731296386,1.2136341002512692
3.102957,0.706142873677067,0.4951695677836487,0.0029330407279436798,1.2042454821886597
3.105259,0.6981752194979323,0.4942624212539741,0.002777700597724968,1.1952153413496314
3.10756,0.6904530226399443,0.492479992836721,0.0026248498926700185,1.1855578653693353
3.109862,0.6824226349466829,0.4901120516209511,0.002476978037942592,1.1750116646055766
3.112163,0.6741866207348947,0.4886507590498232,0.0023330892634771828,1.165170469048195
3.114465,0.6659605642237616,0.48619917314855104,0.00219268568424104,1.1543524230565538
3.116767,0.6574427470834355,0.4832865457069501,0.0020557673002341626,1.1427850600906198
3.119068,0.6485540055937091,0.4815409607821206,0.001924325651587561,1.1320192920274172
3.12137,0.6401088796681649,0.4782529280258245,0.0017993565083667391,1.120161164202356
3.123672,0.6311081140460693,0.4757933759640283,0.0016798641005061918,1.1085813541106038
3.125973,0.6219042113306106,0.4731501043251465,0.0015633590028421582,1.0966176746585992
3.128275,0.612838720654257,0.4700751663628684,0.0014503391004073909,1.084364226117533
3.130576,0.6036084300320625,0.4669140942899242,0.0013467790135949164,1.0718693033355815
3.132878,0.5940818978153805,0.4638416457528098,0.0012576575927322586,1.0591812011609223
3.13518,0.5846011710217115,0.4608115174434794,0.0011804854126556553,1.0465931738778464
3.137481,0.5749904962344942,0.4577883595246076,0.0011087899679393268,1.0338876457270412
3.139783,0.5658194539311971,0.4547841212369804,0.0010356008681247418,1.0216391760363022
3.142085,0.5561644673760651,0.4507283497601803,0.0009624117683101564,1.0078552289045557
3.144386,0.5461609612980062,0.4475866952035134,0.0008932057487575899,0.9946408622502771
3.146688,0.5365672146019026,0.44456054997444505,0.0008309701196635549,0.9819587346960112
3.148989,0.5275171583615643,0.4410290514371331,0.0007737133408970426,0.9693199231395944
3.151291,0.5170471340078168,0.4377116434639047,0.0007194438723270441,0.9554782213440484
3.153593,0.5076296386133072,0.4337096435706419,0.0006671659438880548,0.9420064481278372
3.155894,0.4979243656698672,0.4306625871701979,0.0006203647508093406,0.9292073175908744
3.158196,0.4880632547111754,0.42672829964138936,0.0005820276032874149,0.9153735819558524
3.160498,0.4783126742297548,0.4226506212231482,0.0005491671911257647,0.9015124626440288
3.162799,0.4688289601258894,0.4193113063084787,0.0005168046639968663,0.8886570710983649
3.165101,0.4585909501974043,0.4150782877600188,0.0004804590566059499,0.8741496970140291
3.167402,0.4494109459635177,0.4117842803833297,0.00044062825398576746,0.8616358546008331
3.1697040000000003,0.4396399521957543,0.40764237479586346,0.0003983080262018238,0.8476806350178194
3.172006,0.4288204125490145,0.4033540910087681,0.0003574814535161368,0.8325319850112987
3.174307,0.4197101122197133,0.39955921128913024,0.0003251189263872387,0.8195944424352307
3.176609,0.41058487533942944,0.3949084671981912,0.00030719506520815665,0.8058005376028288
3.1789110000000003,0.4011330258776602,0.3910802291813589,0.00030420775501164286,0.7925174628140307
3.181212,0.391303281676032,0.386790949624198,0.0003081908352736612,0.7784024221355036
3.183514,0.3821471759237175,0.3826973388849088,0.00031267180056843163,0.7651571866091947
3.1858150000000003,0.3724742655074063,0.378156627386208,0.00031267180056843163,0.7509435646941828
3.188117,0.3633325984210417,0.3736915944124855,0.00030271409991338615,0.7373269069334405
3.190419,0.3538304625709644,0.3698195425127711,0.00028230081357054256,0.723932305897306
3.19272,0.34494470839143443,0.36495022689245377,0.00026138964219494685,0.7101563249260829
3.1950220000000003,0.33537585594696834,0.3602123529207831,0.00025093405650714897,0.6958391429242585
3.197323,0.32664842920785364,0.3554142348601493,0.0002549171367691672,0.6823175812047722
3.199625,0.3179687994318832,0.35065544971710305,0.0002683600326534788,0.6688926091816397
3.201927,0.3090068688423421,0.3460221316023104,0.00028578600879980865,0.6553147864534523
3.204228,0.2998293540336194,0.3414266527500068,0.00030271409991338615,0.6415587208835395
3.20653,0.29144048911677617,0.3367798917393298,0.00031466334069944085,0.6285350441968054
3.208832,0.2822510250672673,0.3312852325178756,0.00031914430599421124,0.6138554018911372
3.211133,0.27438245000965034,0.32690882307998304,0.00032312738625622957,0.6016144004758897
3.213435,0.26624053606905235,0.3214191427088564,0.00033507662704228427,0.5879947554049509
3.215736,0.2580846813475372,0.3164208748650563,0.0003569835684833845,0.5748625397810769
3.218038,0.2499457547171357,0.31196082074166137,0.00037889050992448485,0.5622854659687215
3.22034,0.2423315989112551,0.3062874207934492,0.000389843980645035,0.5490088636853493
3.222641,0.2345083313916185,0.3016680434595735,0.0003908397507105396,0.5365672146019025
3.224943,0.2266850638719819,0.29620574676524825,0.0003968143711035669,0.5232876250083338
3.227245,0.21904551592943095,0.2909799454614803,0.00041872131254466717,0.5104441827034559
3.229546,0.21177191348595287,0.2861733633552898,0.00044959018457530847,0.498394867025818
3.231848,0.2045207158689487,0.2811472139496556,0.000473488666147418,0.4861414184847517
3.234149,0.19733872427149707,0.27581884832914066,0.0004804590566059499,0.4736380316572437
3.236451,0.19020452963718965,0.2707956862337029,0.0004769738613766839,0.4614771897322693
3.238753,0.1836767589727745,0.26572323352002264,0.00047299078111466574,0.44987298327391184
3.241054,0.17708476113913432,0.26000651757396104,0.0004749823212456747,0.43756626103434093
3.2433560000000003,0.17039866303430395,0.25524823031594746,0.000485935791966225,0.4261328291422176
3.245658,0.16414124394267332,0.25010159273238713,0.0005088385034728299,0.4147516751785333
3.247959,0.15807600847368505,0.24488226393404502,0.0005357242952414528,0.4034939967029715
3.250261,0.15217407929543952,0.24021658329212334,0.000553648156420535,0.39294431074398345
3.252562,0.14676406052955324,0.2346098999383,0.0005546439264860394,0.3819286043943392
3.254864,0.1413998471866802,0.2293606980379927,0.0005496650761585167,0.3713102103008313
3.257166,0.13630897272678813,0.22488371582348415,0.0005551418115187919,0.3617478303617911
3.259467,0.13075207787623996,0.21958771273009814,0.0005775466379926446,0.3509173372443308
3.261769,0.1258474124185972,0.21441070415954,0.0006014451195647539,0.340859561697702
3.264071,0.12125093779622817,0.20970419694493267,0.0006089133950560381,0.3315640481362169
3.266372,0.1167988498333573,0.2049190238951505,0.0006004493494992492,0.32231832307800706
3.2686740000000003,0.11237066035205852,0.1999760212899859,0.0005929810740079651,0.3129396627160524
3.270975,0.1082790411529003,0.1950126053984784,0.0006019430045975063,0.30389358955597623
3.273277,0.1040574739601937,0.1900486916219382,0.0006203647508093406,0.2947265303329412
3.275579,0.1004901277005236,0.1859401443316664,0.0006298245664316339,0.28706009659862164
3.27788,0.09665989814356034,0.18124956943810716,0.0006198668657765883,0.27852933444744404
3.280182,0.09330614456294097,0.17650671661610895,0.0006039345447285152,0.2704167957237784
3.282484,0.09015005134032428,0.17189928852301936,0.0005979599243354879,0.26264729978767914
3.284785,0.08697653214156124,0.16774842100496354,0.0006099091651215426,0.2553348623116464
3.287087,0.08420231673906553,0.1631136092350726,0.0006353013017919089,0.24795122727593005
3.289388,0.08152419314789103,0.15939988477577335,0.0006671659438880548,0.24159124386755246
3.29169,0.07920902774559294,0.15542875375454118,0.000706996746508237,0.23534477824664235
3.293992,0.07701435052122088,0.15098811714742358,0.0007577810198489697,0.22876024868849346
3.296293,0.07511691066140194,0.14743720109383432,0.0008249954992705275,0.2233791072545068
3.298595,0.07368549119223912,0.14350042413986205,0.0009171042303296992,0.2181030195624309
3.300897,0.07251745290540229,0.13992809902986444,0.0010445627987142828,0.21349011473398105
3.3031980000000005,0.07209325485749735,0.1363458162192118,0.0012163331350138193,0.20965540421172296
3.3055,0.0722595484584366,0.13284717809406152,0.0014428708249161065,0.20654959737741424
3.307801,0.07321299829615723,0.129292776845243,0.001733635684043438,0.20423941082544367
3.310103,0.07554708332969991,0.1265623753256295,0.002087631942330309,0.20419709059765973
3.3124050000000005,0.07963073636833412,0.12311651301395095,0.0024929103589906645,0.2052401597412757
3.314706,0.08606888772685384,0.12082474820819225,0.00293752169323845,0.2098311576282845
3.317008,0.09396584223133776,0.11813865845649367,0.003409516704287612,0.21551401739211906
3.31931,0.10204850785303823,0.11623026512595418,0.003896946151352093,0.2221757191303445
3.321611,0.10846325861501864,0.11439755032039305,0.004386865023580336,0.227247673958992
3.323913,0.1115840020003099,0.1130333453306518,0.004861349459793259,0.22947869679075494
3.326214,0.10826709191211424,0.11177568773791956,0.005301479828746274,0.22534425947878006
3.3285160000000005,0.09888942732022504,0.1116666509157468,0.005686344959063786,0.2162424231950356
3.330818,0.08515676234685167,0.1110114342126448,0.005994037909304696,0.2021622344688012
3.3331190000000004,0.07053587047504821,0.11183443817178433,0.006201655967962396,0.18857196461479486
3.335421,0.05856322909245415,0.1125598566645044,0.006304220284709366,0.17742730604166793
3.3377230000000004,0.050654823232216935,0.11379759885592655,0.0063091991350368885,0.17076162122318034
3.340024,0.04598267008486954,0.11442543188222715,0.006228541759731019,0.16663664372682774
3.3423260000000004,0.04279172490996019,0.11526586181751305,0.006109049351870471,0.1641666360793437
3.344627,0.04089229351001024,0.11535946420367045,0.00600598715009075,0.16225774486377142
3.3469290000000003,0.039317981036447534,0.11463902456127788,0.005961675382175797,0.1599186809799012
3.349231,0.03797169990788536,0.11330618632860005,0.005988063288911667,0.15726594952539708
3.351532,0.037046131631998866,0.11133505948393377,0.0060906276056586365,0.1544718187215913
3.3538339999999995,0.0361464533778155,0.10908661067602447,0.006272853527645971,0.15150591758148596
3.356135,0.035504679570597816,0.10649860427577812,0.006531255859644407,0.14853453970602035
3.3584370000000003,0.034629895568052065,0.10461410942681076,0.006863345176490175,0.14610735017135298
3.360739,0.03392638401677309,0.1030392990682153,0.007267129938052275,0.14423281302304067
3.3630400000000003,0.03330801080609476,0.10233180443667428,0.007739622834134188,0.14337943807690326
