Wavelength,d_NH3_CH3OH_50_10K_I10m_Baselined,H2O_CH3OH_CO_NH3_120K_NASA,HNCO_NH3,all
2.85208,0.0013744893611900408,0.055771097584067286,0.0003500776732799779,0.057495664618537314
2.854382,0.001433580486183399,0.059340400159296335,0.000364974595547211,0.061138955241026936
2.8566830000000003,0.0014901887907988846,0.06318728205277149,0.00037987151781444415,0.06505734236138483
2.858985,0.0015502730439433913,0.06735345464684102,0.0003947684400816772,0.06929849613086611
2.861286,0.0016163160659947912,0.07118891556657797,0.0004096653623489103,0.07321489699492167
2.863588,0.0016888144210286593,0.07525279596107917,0.00042456228461614333,0.07736617266672396
2.8658900000000003,0.001767768109044995,0.07945720398896793,0.0004394592068833765,0.0816644313048963
2.868191,0.001856653078572819,0.08363281130047336,0.0004543561291506097,0.08594382050819678
2.870493,0.0019569590218388552,0.08783672276428654,0.0004692530514178426,0.09026293483754323
2.872795,0.0020597477854827637,0.09219407252745224,0.0004841499736850758,0.09473797028662008
2.875096,0.002153101831690757,0.09612388062154832,0.0004990468959523089,0.0987760293491914
2.877398,0.0022260967508002,0.10019471291310757,0.0005139438182195419,0.10293475348212727
2.879699,0.002290153516549302,0.10424468951349264,0.0005288407404867751,0.10706368377052873
2.882001,0.0023596724871297234,0.10827678980715708,0.0005432410986784338,0.11117970339296523
2.884303,0.0024430952518262284,0.11247474250206337,0.0005581380209456669,0.11547597577483525
2.886604,0.002534463041731925,0.11644179290182753,0.0005725383791373255,0.1195487943226968
2.888906,0.0026248377034864727,0.12072316836143035,0.0005874353014045586,0.12393544136632136
2.891208,0.0027092535963341266,0.12427211180956085,0.0006018356595962173,0.12758320106549115
2.893509,0.002782248515443569,0.1286612416735633,0.0006167325818634504,0.13206022277087032
2.895811,0.0028423327685880764,0.1332797841404811,0.000631132940055109,0.1367532498491243
2.898112,0.002901920457657008,0.13754675924189225,0.0006460298623223423,0.1410947095618716
2.900414,0.002981867273824493,0.14179039583175138,0.0006604302205140009,0.14543269332608988
2.902716,0.003084656037468401,0.1462599690759969,0.0006748305787056595,0.15001945569217096
2.905017,0.003162616597333587,0.15114516645149825,0.0006892309368973183,0.15499701398572913
2.907319,0.003159140648804566,0.15539426524618866,0.0007041278591645513,0.15925753375415774
2.909621,0.0030881319859974213,0.1601448937572093,0.0007215076018096565,0.1639545333450164
2.911922,0.0030603243977652536,0.16507627159173902,0.0008034406742794385,0.16894003666378368
2.9142240000000004,0.003182479160356565,0.17002900168151847,0.0008928222078828373,0.17410430304975788
2.916525,0.003448637504864463,0.17532833349604882,0.000982203741486236,0.17975917474239952
2.918827,0.0037763697947435907,0.18066590074439845,0.00107108871101406,0.18551335925015608
2.921129,0.004106088340925017,0.18590167235725533,0.001158483988315161,0.1911662446864955
2.92343,0.004491918627646354,0.1913077654480342,0.0012468723937674106,0.197046556469448
2.925732,0.005022745624435427,0.19683899268585786,0.00133972987589983,0.2032014681861931
2.928034,0.005778516147459721,0.20299638722298088,0.001429111409503229,0.21020401477994385
2.930335,0.006822293834317186,0.20809411402282807,0.0015125341741997346,0.216428942031345
2.932637,0.008212673245925608,0.2158424998580916,0.0016431305260758114,0.225698303630093
2.9349380000000003,0.00995313033081401,0.2219969150107611,0.0019102819987348574,0.23386032734031
2.93724,0.011989539604744774,0.22810912221700685,0.0021600537287487995,0.24225871555050044
2.939542,0.014255858045666503,0.23514642829604784,0.0024207498684253787,0.2518230362101397
2.941843,0.016597157661999973,0.2417482476808099,0.002680949444026384,0.2610263547868362
2.944145,0.018817792207968854,0.2482800515309161,0.0029406524555518143,0.2700384961944367
2.946447,0.020759854307540473,0.2544955440648813,0.003189927621490181,0.2784453259939119
2.948748,0.022381632578366586,0.26040564969236824,0.0034600584786026755,0.2862473407493375
2.95105,0.02366773353410437,0.26741415505502586,0.003954636297874814,0.29503652488700505
2.953351,0.02463504035332338,0.2733838483715817,0.004473049192774526,0.3024919379176796
2.955653,0.02535207887845287,0.2775897460916972,0.0049045633744487106,0.3078463883445988
2.957955,0.025888864644148836,0.28532472469692016,0.005186611769374992,0.31640020111044403
2.960256,0.026270225854189998,0.2902764616585485,0.005484550214719654,0.3220312377274581
2.962558,0.026494176252274067,0.2952872897451701,0.0054299281664064655,0.32721139416385064
2.96486,0.02655177768504071,0.3024949173021331,0.005340050068727493,0.3343867450559013
2.967161,0.026409263795350843,0.3076964259937753,0.005236268176932435,0.33934195796605865
2.969463,0.026026412893082957,0.3137629493050681,0.005134472541439675,0.3449238347395908
2.971764,0.02538137615891176,0.3188308822603809,0.0050440978796851286,0.34925635629897783
2.974066,0.024495505848086963,0.32389384957493783,0.004941805680116794,0.3533311611031416
2.976368,0.02339809924106746,0.32906904037057466,0.004840010044624035,0.3573071496562661
2.978669,0.022147750898771024,0.3342392655254557,0.0047476491265671895,0.3611346655507939
2.980971,0.020837318303330087,0.33937175181059304,0.004647839747376728,0.36485690986129976
2.983273,0.01955717611649919,0.3447341472627214,0.004546044111883968,0.3688373674911046
2.985574,0.018367905155498413,0.3499500563125553,0.004458152270507293,0.37277611373856095
2.987876,0.017318168699734054,0.3547289889758836,0.004355363506863385,0.3764025211824811
2.990177,0.01644024341411845,0.35997320217802525,0.004226256847214031,0.3806397024393577
2.992479,0.01572022550453552,0.36533857701460704,0.004073315111937105,0.3851321176310796
2.994781,0.015132293639055385,0.37006189450147103,0.003922359632962475,0.3891165477734889
2.997082,0.014652116177974904,0.3749833410544894,0.003771900718063421,0.3934073579505277
2.999384,0.014256354609742082,0.3792731581033769,0.003621441803164368,0.39715095451628335
3.001686,0.013922663550956057,0.3848167994430899,0.003471479452340887,0.4022109424463869
3.003987,0.013646573924936671,0.3901061999761088,0.0033210205374418324,0.4070737944384873
3.006289,0.013435534192817532,0.394947203148884,0.003156657828426694,0.4115393951701282
3.0085900000000003,0.013294509995354396,0.3998929813416054,0.003176023827374097,0.4163635151643339
3.010892,0.013212576922884613,0.4041326454188599,0.0032922198210585158,0.4206374421628031
3.013194,0.013173844924989807,0.4094091352859139,0.00340245704583604,0.4259854372567397
3.015495,0.013165899899780616,0.4136656825417379,0.0035131908346891397,0.4303447732762077
3.0177970000000003,0.013179307129821127,0.4179088225675216,0.0036244211876178133,0.4347125508849605
3.020098,0.01320661815397772,0.4227021555890416,0.0037460793861335507,0.4396548531291528
3.0224,0.013237901690738909,0.4273658853868366,0.003856316610911076,0.4444601036884866
3.024702,0.013259750510064184,0.4314218207561287,0.0039660572716130275,0.4486476285378059
3.027003,0.013260743638215331,0.4355845174016691,0.0040753013682394024,0.4529205624081238
3.029305,0.01324237076741908,0.4393812463235113,0.004185042028941353,0.4568086591198718
3.031607,0.013212576922884613,0.4433050956487006,0.00430670022745709,0.4608243727990423
3.0339080000000003,0.0131798036938967,0.4478829198614213,0.00441644088815904,0.465479164443477
3.03621,0.013154975490117978,0.4509556583610759,0.00453065062554116,0.468641284476735
3.038511,0.013148520157135513,0.4548934114803811,0.00469402020640515,0.4727359518439218
3.040813,0.013166396463856188,0.4585714615881609,0.004876755786216543,0.4766146138382337
3.043115,0.013205128461750995,0.4618314047443072,0.005059987930103511,0.4800965211361617
3.045416,0.013260743638215331,0.4650406983647448,0.005238750997310308,0.4835401930002704
3.047718,0.013327283224342306,0.4683885333622677,0.0054209900130461255,0.4871368065996561
3.05002,0.0133992850153006,0.4716231517505594,0.005591808055043732,0.4906142448209038
3.052321,0.013470790242183315,0.474998297772239,0.005771067686326104,0.4942401557007484
3.054623,0.013546764545746208,0.4767700383938885,0.0059528101379863465,0.4962696130776211
3.056924,0.01363316669489616,0.4801903717464453,0.0061345525896465926,0.49995809103098793
3.059226,0.013731982945935474,0.4826870959184336,0.006307356887946495,0.5027264357523156
3.061528,0.013833282017352656,0.4857469237521232,0.006473209289188357,0.5060534150586642
3.063829,0.013926139499485077,0.4876989171332062,0.00663012353706988,0.5082551801697612
3.066131,0.01400112067489682,0.4897884587632235,0.006783065272346804,0.5105726447104671
3.068433,0.01405425303098328,0.4917414452724578,0.0069280619824145405,0.5127237602858556
3.070734,0.0140810674910643,0.4933344228269005,0.007083486538069341,0.5144989768560342
3.073036,0.014080570926988728,0.4948419913603446,0.007226000427759205,0.5161485627150926
3.075337,0.014052763338756559,0.4963952437887414,0.007381921547489577,0.5178299286749876
3.077639,0.014000127546745669,0.4971922291300384,0.0075264216934817375,0.5187187783702658
3.079941,0.013931601704316395,0.4978784806824822,0.007677377172456366,0.5194874595592549
3.082242,0.013857613657055805,0.4983998729618353,0.007824856702901974,0.5200823433217932
3.084544,0.013787598122399809,0.4999163796486397,0.007972832797423156,0.5216768105684626
3.086846,0.013729003561482028,0.4999034689826749,0.0081098844822817,0.5217423570264386
3.089147,0.013688781871360498,0.4998816201633495,0.008234522065250884,0.5218049240999608
3.0914490000000003,0.013677360897622285,0.4986680175626456,0.008354690571539897,0.5207000690318079
3.09375,0.013705168485854452,0.4985384143389207,0.008485783487491549,0.5207293663122666
3.096052,0.01377965309719062,0.4971986844630209,0.008612903890838604,0.5195912414510501
3.098354,0.013885917809363548,0.4971544902602947,0.008731582704900894,0.5197719907745592
3.100655,0.01400112067489682,0.4957417654652855,0.0088596962363991,0.5186025823765814
3.102957,0.014101426618162856,0.4938558151062537,0.00897738192231024,0.5169346236467268
3.105259,0.01416151087130736,0.4929510753605571,0.00905683217440215,0.5161694184062666
3.10756,0.01415604866647604,0.4911733759700007,0.009092584787843512,0.5144220094243201
3.109862,0.014084543439593325,0.4888117172265686,0.009127840837209295,0.5120241015033712
3.112163,0.013971823394437923,0.4873543016647576,0.009152172476912444,0.5104782975361081
3.114465,0.01384470299109087,0.4849092201566291,0.009186435398127078,0.5079403585458471
3.116767,0.013715596331441515,0.4820043203145187,0.00921871206303942,0.5049386287089996
3.119068,0.013591455312547908,0.4802633666655546,0.009254464676480778,0.5031092866545833
3.12137,0.013478735267392513,0.4769840575104611,0.009290217289922137,0.4997530100677757
3.123672,0.013383891528957793,0.4745310309771234,0.009291706982148859,0.4972066294882301
3.125973,0.013314869122452944,0.4718947722998987,0.009230629600853205,0.4944402710232049
3.128275,0.013272164611953543,0.468827992569151,0.009181469757371335,0.4912816269384759
3.130576,0.01324237076741908,0.4656753072533289,0.009124364888680276,0.4880420429094282
3.132878,0.013212080358809036,0.462611010342959,0.009067260019989214,0.4848903507217573
3.13518,0.0131778174375944,0.459588921379013,0.0090151207920539,0.4817818596086613
3.137481,0.013142561388228616,0.456573784312125,0.008956029667060541,0.4786723753674142
3.139783,0.01310929159516513,0.4535775166801089,0.008897931670218332,0.4755847399454923
3.142085,0.01307453210987492,0.4495325057204795,0.008849268390812036,0.4714563062211665
3.144386,0.01303431041975339,0.4463991864036048,0.00879266008619655,0.4682261569095548
3.146688,0.012984157448120372,0.4433810699522634,0.00874101742233681,0.4651062448227206
3.148989,0.012921590374597992,0.4398589409642139,0.008682422861419027,0.4614629542002309
3.151291,0.012846112635110677,0.43655033452866143,0.008624324864576817,0.4580207720283489
3.153593,0.012758717357809576,0.4325589524891942,0.00857665471332167,0.4538943245603255
3.155894,0.012666356439752731,0.42951998034667854,0.008520542972781759,0.450706879759213
3.158196,0.012573498957620312,0.42559613102148935,0.008464431232241849,0.4466340612113515
3.160498,0.012480641475487893,0.4215292712425347,0.008411795440230956,0.4424217081582536
3.162799,0.01238182522444858,0.418198815987657,0.008353697443388748,0.4389343386554944
3.165101,0.01227357425597335,0.4139770282171231,0.008296592574697689,0.43454719504779415
3.167402,0.012153902313759913,0.41069176029312265,0.008252894936047138,0.4310985575429297
3.1697040000000003,0.012021319705581537,0.4065608437484189,0.008209693861472163,0.4267918573154726
3.172006,0.011879798944042824,0.4022839373654963,0.008175430940257527,0.4223391672497967
3.174307,0.011738774746579684,0.398499125981468,0.008142161147194037,0.4183800618752417
3.176609,0.011609668086930331,0.3938607209515271,0.008108394790054978,0.4135787838285124
3.1789110000000003,0.011492478965094763,0.3900426397744353,0.008074628432915915,0.409609747172446
3.181212,0.011378269227712644,0.3857647402633615,0.008041358639852428,0.40518436813092656
3.183514,0.011259093849574778,0.3816819904339885,0.008008585410864516,0.4009496696944278
3.1858150000000003,0.011136442522907894,0.3771533260647497,0.007986240027463665,0.3962760086151213
3.188117,0.011016274016618878,0.37270013943499797,0.007952473670324605,0.3916688871219415
3.190419,0.010903057407387907,0.3688383606192557,0.007918707313185542,0.3876601253398291
3.19272,0.0107982823874417,0.3639819639601377,0.007884940956046482,0.38266518730362586
3.1950220000000003,0.010703438649006984,0.3592566602169714,0.007851174598907421,0.3778112734648858
3.197323,0.010616539935781457,0.35447127222066044,0.007817408241768357,0.3729052203982102
3.199625,0.010535599991462823,0.34972511278632,0.007783641884629295,0.36804435466241214
3.201927,0.010457142867522064,0.3451040874990243,0.0077717243468155076,0.3633329547133619
3.204228,0.01038613420471492,0.34052080108147226,0.00782088419029738,0.3587278194764845
3.20653,0.010331512156401731,0.3358863685641361,0.007873519982308268,0.3540914007028461
3.208832,0.010299732055564968,0.33040628742609657,0.007917217620958818,0.34862323710262033
3.211133,0.010285331697373308,0.3260414892017973,0.007972832797423156,0.3442996536965937
3.213435,0.010278379800315266,0.3205663737045135,0.00801603387199813,0.3388607873768269
3.215736,0.010274903851786244,0.3155813669498218,0.008060228074724255,0.33391649887633235
3.218038,0.010278876364390841,0.311133145960826,0.008112367302659573,0.3295243896278764
3.22034,0.010294766414809222,0.3054747983196553,0.00815805119761242,0.3239276159320769
3.222641,0.010321580874890242,0.30086767682647564,0.008200259144036246,0.3193895168454022
3.224943,0.01034938846312241,0.2954198723533485,0.008257860576802884,0.31402712139327377
3.227245,0.010371733846523259,0.2902079358161192,0.00830006852322671,0.3088797381858692
3.229546,0.010390106717319514,0.2854141062305236,0.008345255854103985,0.3041494688019471
3.231848,0.010408976152191343,0.2804012918875997,0.008397395082039301,0.2992076631218303
3.234149,0.01043181809966777,0.2750870631508021,0.008440596156614275,0.2939594774070841
3.236451,0.010455156611219766,0.27007722819233154,0.008494225076776314,0.28902660988032763
3.238753,0.01047352948201602,0.2650182333903792,0.008537922715426865,0.28402968558782205
3.241054,0.01048246763537636,0.25931668467463354,0.008580130661850692,0.2783792829718606
3.2433560000000003,0.010478991686847338,0.2545710218043686,0.00864815994020439,0.27369817343142033
3.245658,0.010459625687899935,0.24943803895515565,0.008717182346709236,0.26861484698976484
3.247959,0.01043181809966777,0.2442325577509088,0.008784218496911786,0.2634485943474884
3.250261,0.010408479588115768,0.2395792557987008,0.008856220287870078,0.2588439556746866
3.252562,0.01040103112698215,0.23398744774365704,0.00892027705361918,0.2533087559242584
3.254864,0.01040649333181347,0.2287521726948757,0.008994761664955345,0.24815342769164456
3.257166,0.010417417741476106,0.2242870685273104,0.009059314994780023,0.24376380126356656
3.259467,0.010429831843365468,0.21900511645542511,0.0091218820683024,0.23855683036709294
3.261769,0.010439266560801384,0.2138418431976022,0.009199346064092015,0.2334804558224956
3.264071,0.010443735637481551,0.20914782299119694,0.009261913137614394,0.2288534717662929
3.266372,0.010443735637481551,0.20437534566085108,0.00932646646743907,0.2241455477657717
3.2686740000000003,0.01044125281710368,0.19944545751854809,0.009399461386548513,0.21928617172220027
3.270975,0.010439763124876955,0.19449521024914654,0.009462028460070894,0.2143970018340944
3.273277,0.010437280304499086,0.18954446641566935,0.00953800276363378,0.20951974948380225
3.275579,0.010429831843365468,0.18544681966402915,0.009598583580853862,0.20547523508824847
3.27788,0.01041443835702266,0.1807686895080424,0.009592624811946969,0.200775752677012
3.280182,0.01038961015324394,0.1760384201241203,0.009579217581906458,0.1960072478592707
3.282484,0.010355347232029305,0.17144321616875444,0.009570775992621692,0.19136933939340545
3.284785,0.010312146157454323,0.16730336147069036,0.009559355018883482,0.18717486264702812
3.287087,0.010261496621745737,0.16268084649116793,0.009538499327709357,0.18248084244062304
3.289388,0.010205384881205823,0.15897697505145822,0.009530554302500164,0.1787129142351642
3.29169,0.01014132811545672,0.15501637998467652,0.009522609277290971,0.17468031737742426
3.293992,0.010064360683742684,0.1505875249946281,0.009501753586116846,0.17015363926448765
3.296293,0.009971006637534691,0.1470460300076312,0.009491325740529785,0.16650836238569566
3.298595,0.009865735053512908,0.14311969786206413,0.009479904766791572,0.1624653376823686
3.300897,0.00975599439281096,0.13955685061981754,0.009467987228977784,0.15878083224160633
3.3031980000000005,0.009644764039882285,0.13598407209605948,0.00945060748633268,0.15507944362227444
3.3055,0.009529561174349015,0.13249471633699791,0.009443159025199065,0.15146743653654599
3.307801,0.009406909847682127,0.12894974540147205,0.00943372430776315,0.14779037955691732
3.310103,0.009281775700637372,0.1262265880110218,0.009411875488437874,0.14492023920009706
3.3124050000000005,0.009169552219557548,0.12278986804397113,0.009404923591379831,0.1413643438549085
3.314706,0.009081660378180872,0.12050418360410202,0.0093880404128103,0.1389738843950932
3.317008,0.00900866545907143,0.11782522041637793,0.009376122874996512,0.13621000875044584
3.31931,0.00892871864290395,0.1159218903147011,0.009365198465333877,0.13421580742293893
3.321611,0.008828412699637909,0.1140940379525116,0.009354274055671241,0.13227672470782076
3.323913,0.008714699526331365,0.11273345238543765,0.009334411492648263,0.13078256340441727
3.326214,0.008600986353024817,0.11147913153053664,0.009327459595590221,0.1294075774791517
3.3285160000000005,0.008492735384549591,0.11137038399798582,0.009319018006305451,0.12918213738884085
3.330818,0.008385974108301088,0.11071690567452984,0.009297169186980179,0.1284000489698111
3.3331190000000004,0.008277723139825858,0.1115377260914544,0.00928823103361984,0.1291036802649001
3.335421,0.008172451555804079,0.11226121994956637,0.009281279136561795,0.12971495064193225
3.3377230000000004,0.008081580329973958,0.1134956782414444,0.009261913137614394,0.13083917170903275
3.340024,0.00801454417977141,0.11412184554074375,0.009250988727951756,0.13138737844846693
3.3423260000000004,0.007971343105196434,0.11496004570031346,0.009240064318289118,0.13217145312379894
3.344627,0.007948004593644434,0.1150533997465214,0.009227650216399758,0.13222905455656558
3.3469290000000003,0.007943038952888691,0.1143348715291652,0.009212256730056951,0.13149016721211082
3.349231,0.007958432439231495,0.11300556949885245,0.009204808268923332,0.13016881020700727
3.351532,0.00799666787305073,0.11103967232365324,0.009193883859260695,0.12823022405596465
3.3538339999999995,0.008055262433968513,0.10879718895835908,0.009174517860313293,0.12602696925264087
3.356135,0.008125774532700083,0.10621604889352317,0.009168559091406398,0.12351038251762965
