Wavelength,H2O_NH3_CO2_CH4_10_1_1_1_72K_b,CO_NH3_10K,CO_CH3OH_10K,all
2.85208,0.16660920555500372,0.0001561771676138183,0.0036258966621169923,0.17039127938473453
2.854382,0.17610020145438868,0.0001686116554811605,0.0039009475337426023,0.18016976064361245
2.8566830000000003,0.18474465741976495,0.00017806186626034062,0.004205343796735138,0.18912806308276048
2.858985,0.19505483737985047,0.00018054876383380902,0.004551519938961947,0.1997869060826462
2.861286,0.20415190870359806,0.00017955400480442163,0.004936989062849556,0.20926845177125206
2.863588,0.2141855456535138,0.00017806186626034062,0.005357772132280416,0.21972137965205454
2.8658900000000003,0.22445593525242385,0.00017905662528972798,0.005809890111136979,0.2304448819888505
2.868191,0.2353167143352752,0.0001820409023778901,0.006288369204272309,0.24178712444192535
2.870493,0.24619689121919966,0.00018552255898074592,0.006787738237024771,0.25317015201520515
2.872795,0.2572277740960763,0.00018800945655421435,0.007300536516673964,0.2647163200693045
2.875096,0.26865606320519314,0.00018751207703952068,0.007816816452926012,0.2766603917351587
2.877398,0.27994409129116643,0.00018303566140727748,0.008329117353060514,0.2884562443056342
2.879699,0.2923183962372307,0.0001775644867456469,0.008842910391739093,0.30133887111571545
2.882001,0.30440422106477266,0.00017806186626034062,0.009368143159255628,0.3139504260902886
2.884303,0.31685760935367324,0.0001860199384954396,0.009904815655610116,0.3269484449477788
2.886604,0.328922544241598,0.000194972769759926,0.01043949863390583,0.3395570156452637
2.888906,0.3418195950576054,0.00019944918539216918,0.010955778570157884,0.35297482281315545
2.891208,0.3551986066233509,0.00020143870345094397,0.011447686910189941,0.3668477322369918
2.893509,0.3669929670552824,0.0002123810527742051,0.011918705310604865,0.3791240534186614
2.895811,0.3804689676263932,0.000239736926082358,0.012370823289461428,0.393079527841937
2.898112,0.3938489739511681,0.000268584937934592,0.012801553949186162,0.4069191128382888
2.900414,0.4069315473261562,0.0002730613535668352,0.01320443135608805,0.4204090400358112
2.902716,0.4198141741362375,0.00024918713686153805,0.01357746599210832,0.4336408272652073
2.905017,0.43345679684477056,0.00025913472715541184,0.013930108068026142,0.4476460396399521
2.907319,0.4460469645002121,0.0003760189131084287,0.014274294692194175,0.4606972781055146
2.909621,0.4596617339559223,0.000584918309279778,0.014613010141700578,0.4748596624069026
2.911922,0.4732506396768685,0.0007495509286433889,0.0149343173081927,0.4889345079137046
2.9142240000000004,0.4868768488614169,0.00074159285640829,0.015226279083317897,0.5028447208011431
2.916525,0.5011063793972886,0.0006202322548230298,0.015478450497267596,0.5172050621493792
2.918827,0.5152911457768379,0.00056900216480958,0.015678894441689153,0.5315390423833367
2.921129,0.5297842874554973,0.00074159285640829,0.015818658085318082,0.5463445383972237
2.92343,0.5465857674618501,0.001139496468163241,0.01590072570524254,0.5636259896352558
2.925732,0.5616797435942595,0.00171645670520792,0.01593007109660946,0.5793262713960771
2.928034,0.5786662487800783,0.002434175344910913,0.0159116680545658,0.5970120921795551
2.930335,0.5933593370236446,0.003263804375419986,0.01584949561522909,0.6124726370142937
2.932637,0.6067666992217277,0.004177490543912293,0.015747532814716882,0.6266917225803568
2.9349380000000003,0.6195717348275167,0.005125993278433157,0.015613240345749587,0.6403109684516994
2.93724,0.6319251498339639,0.006041171585469543,0.015458057937165157,0.6534243793565986
2.939542,0.6425531553039385,0.006860853025684743,0.01529292793828685,0.6647069362679101
2.941843,0.651840722981814,0.007577079526843656,0.015125808421349769,0.6745436109300074
2.944145,0.6630929397427291,0.008209746269534026,0.014963662699559628,0.6862663487118228
2.946447,0.6726550609127153,0.008813565000372166,0.014809475050004585,0.6962781009630921
2.948748,0.6827976239763489,0.009568089724162492,0.01465130836433199,0.7070170220648435
2.95105,0.6931157620086696,0.01067227224678248,0.0144772255341892,0.7182652597896413
2.953351,0.7009818190335504,0.012218127778450466,0.01428672918006152,0.7274866759920623
2.955653,0.7105145948121695,0.01413900746419749,0.014101206621080768,0.7387548088974477
2.957955,0.7164756882957735,0.01634190133477584,0.013941050417349405,0.7467586400478987
2.960256,0.7219811821439178,0.01855474279564806,0.013808250086926191,0.7543441750264921
2.962558,0.729469728117146,0.020383109891662064,0.013690371141943785,0.7635432091507519
2.96486,0.733826275286348,0.021481323860105726,0.013575973853564237,0.768883573000018
2.967161,0.7393049106406991,0.02176980397862806,0.013459587047125913,0.774534301666453
2.969463,0.7430650997717833,0.02125203190383193,0.01333673430699657,0.7776538659826118
2.971764,0.7502383071326957,0.020007588358068325,0.013207415633176213,0.7834533111239402
2.974066,0.7556781468849006,0.018285163098684082,0.013079091718385241,0.7870424017019699
2.976368,0.7615666229593592,0.016350854166040325,0.012960715393888142,0.7908781925192876
2.978669,0.7667329039784826,0.014372775836103526,0.012849302382596756,0.7939549821971829
2.980971,0.7737946983281035,0.012419069102386715,0.01273241819664374,0.798946185627134
2.983273,0.7817388439367908,0.01055389592228538,0.012597628348161749,0.8048903682072381
2.985574,0.7852090608108091,0.008849376325430109,0.01244244593957732,0.8065008830758165
2.987876,0.7938191975896715,0.007381111998054342,0.012267865729919834,0.8134681753176456
2.990177,0.8024253553324162,0.0062038146867743815,0.012076871996277458,0.820706042015468
2.992479,0.8074449093947049,0.005299578729061254,0.01187742281088529,0.8246219109346515
2.994781,0.8151154962703111,0.0046355770769451795,0.011677476245978424,0.8314285495932348
2.997082,0.8233983573285051,0.004174506266824131,0.011480513958159723,0.8390533775534891
2.999384,0.8290560493081457,0.003872596901405061,0.01127907525470878,0.8442077214642596
3.001686,0.8367529972980307,0.003686079583394928,0.011066196822419884,0.8515052737038455
3.003987,0.8446429285396165,0.003586603680456189,0.010840883902263641,0.8590704161223364
3.006289,0.8513928659335246,0.0035542740120011,0.010607115530357605,0.8655542554758834
3.0085900000000003,0.8589977987131913,0.0035811325057945593,0.010368373363304637,0.8729473045822904
3.010892,0.8671602939288293,0.0037054773844679813,0.010123662642075345,0.8809894339553727
3.013194,0.8744608304455033,0.003981025635608286,0.009873480746184415,0.8883153368272959
3.015495,0.8836857283045272,0.004409269397759552,0.009616335537087779,0.8977113332393745
3.0177970000000003,0.8911946668378576,0.004871334966909989,0.009350237496726655,0.9054162393014944
3.020098,0.8989085257312421,0.005234919392151074,0.00907319710704227,0.9132166422304354
3.0224,0.9068064150450632,0.005439839752204875,0.008789193404152174,0.9210354482014204
3.024702,0.9121010199789776,0.005506488607173828,0.008506681839806159,0.9261141904259576
3.027003,0.9159034863688108,0.00546222183036609,0.008233620486239324,0.9295993286854164
3.029305,0.9240858767650366,0.005353793096162866,0.0079675224458782,0.9374071923070776
3.031607,0.9311775138855392,0.005239893187298011,0.007699434887458303,0.9441168419602955
3.0339080000000003,0.9349665510284756,0.0051652862600939575,0.00742537877486208,0.9475572160634316
3.03621,0.9399816286751324,0.005123506380859689,0.0071562964574127955,0.9522614315134048
3.038511,0.9450757896646248,0.00509814002561031,0.006908104079580643,0.9570820337698158
3.040813,0.9505017027904183,0.00507923960405195,0.00668378591845379,0.962264728312924
3.043115,0.9536724971965906,0.005070784152302158,0.006470410106650198,0.9652136914555428
3.045416,0.9594052934829502,0.005077250085993175,0.006253055258729055,0.9707355988276724
3.047718,0.9619533687367259,0.00509814002561031,0.006035700410807914,0.9730872091731442
3.05002,0.9652982459730409,0.005128977555521319,0.0058342617073569684,0.9762614852359194
3.052321,0.9680512415868704,0.005166778398638039,0.005662168395272954,0.9788801883807816
3.054623,0.9718770848138946,0.005211542554960471,0.005509970263776684,0.9825985976326316
3.056924,0.971468736232331,0.005263767404003309,0.0053607564093685785,0.9820932600457031
3.059226,0.9744574897361252,0.005324447704795938,0.005207563518842922,0.984989500959764
3.061528,0.9763306209884618,0.005389107041706118,0.005065312977640527,0.9867850410078084
3.063829,0.9754636884943508,0.00545426375813099,0.0049524078278050596,0.9858703600802868
3.066131,0.9777899324845732,0.005528870685335044,0.004867355930792438,0.9881861591007006
3.068433,0.9763316157474909,0.005637299419538269,0.004788272587956142,0.9867571877549854
3.070734,0.9751906271407838,0.005802926797931267,0.0046937704801643405,0.9856873244188794
3.073036,0.9741197690456485,0.0060391820674107685,0.004586336504990504,0.9847452876180496
3.075337,0.9724818983037621,0.006355515438755954,0.004479897288846055,0.9833173110313641
3.077639,0.9703362030773734,0.0067335238699231595,0.004385395181054254,0.9814551221283508
3.079941,0.9652539791962332,0.0070548310364152815,0.00429586686840939,0.9766046771010579
3.082242,0.9636703228214486,0.0071796732946033965,0.004199872622073509,0.9750498687381256
3.084544,0.9588049564087148,0.00705184675932712,0.004091443887870284,0.9699482470559124
3.086846,0.9546573086356844,0.006756900707113761,0.00396809376822625,0.9653823031110244
3.089147,0.951645675674214,0.006394311040902064,0.003831314401685485,0.9618713011168014
3.0914490000000003,0.9457964925814162,0.006072009115380553,0.0036835926858214594,0.955552094382618
3.09375,0.9366168562582294,0.005906879116502249,0.0035323893133545783,0.9460561246880862
3.096052,0.935044142232768,0.005997402188176499,0.003383175458946471,0.9444247198798912
3.098354,0.9277749406255196,0.006343578330403308,0.003235453743082445,0.9373539726990054
3.100655,0.9222953105121394,0.00690760670006595,0.003084747750130258,0.9322876649623356
3.102957,0.914932104176614,0.0076332834120040405,0.0029300627210605205,0.9254954503096786
3.105259,0.9083841028656716,0.008420137804249458,0.0027748803124760892,0.9195791209823972
3.10756,0.9003807690947355,0.009159741142598972,0.0026221848014651274,0.9121626950387997
3.109862,0.8934159637504797,0.009763559873437112,0.002474463085601102,0.905653986709518
3.112163,0.8860214225055286,0.010162955623736144,0.002330720405854625,0.8985150985351193
3.114465,0.8775231961174723,0.010300729749306294,0.002190459382711005,0.8900143852494896
3.116767,0.8702087329743871,0.010192798394617763,0.002053680016170241,0.8824552113851749
3.119068,0.8616697214661256,0.00990083661949257,0.0019223718242911074,0.8734929299099093
3.12137,0.8544542368464643,0.009477069272973546,0.0017975295661029915,0.8657288356855408
3.123672,0.8460161933796859,0.008944873192251299,0.0016781584825765062,0.8566392250545138
3.125973,0.8374642500040425,0.008321656660340106,0.0015617716761381828,0.8473476783405207
3.128275,0.8288859455141205,0.0076312938939452684,0.0014488665263027154,0.8379661059343685
3.130576,0.8198575125634008,0.006913077874727581,0.0013454115872464285,0.8281160020253748
3.132878,0.8113747049402998,0.00620779372289193,0.001256380654116258,0.8188388793173079
3.13518,0.8022622148515968,0.005534341859996675,0.0011792868293387362,0.8089758435409322
3.137481,0.7940315786424456,0.004897198701674059,0.0011076641792228446,0.8000364415233424
3.139783,0.7843550601840799,0.0042998459045269395,0.0010345493905628731,0.7896894554791697
3.142085,0.7769157547828065,0.0037472572637022522,0.0009614346019029004,0.7816244466484117
3.144386,0.7656809463049052,0.00324540133337632,0.0008922988493604777,0.7698186464876421
3.146688,0.7580869558745621,0.002798754529181387,0.0008301264100237668,0.7617158368137673
3.148989,0.7478513828416806,0.0024048299535439853,0.0007729277658339923,0.7510291405610586
3.151291,0.7381858067326382,0.002062135467920034,0.0007187133987323803,0.7409666555992906
3.153593,0.7280193694522993,0.0017656972771625953,0.0006664885496895429,0.7304515552791514
3.155894,0.7193286571920564,0.0015120337246688138,0.0006197348753083363,0.7214604257920335
3.158196,0.7093382922599191,0.0012946788767476721,0.0005814366526769221,0.7112144077893436
3.160498,0.6989564896497176,0.0011111458358257008,0.0005486096047071388,0.7006162450902504
3.162799,0.6898405179044116,0.0009569581862706573,0.000516279936252049,0.6913137560269342
3.165101,0.6799640528811391,0.0008296290305090728,0.00047997123167940964,0.6812736531433277
3.167402,0.6692858120801802,0.0007231898143646235,0.0004401808705039145,0.6704491827650487
3.1697040000000003,0.6599355745834536,0.0006321693631756785,0.00039790361175495113,0.6609656475583843
3.172006,0.6498656289289653,0.0005520912613099946,0.00035711849155006857,0.6507748386818253
3.174307,0.6391127812008024,0.0004834528882822656,0.0003247888230949788,0.6399210229121796
3.176609,0.6286598533199997,0.0004262542440924913,0.000306883160566006,0.6293929907246583
3.1789110000000003,0.6191638836254679,0.00037950056971128456,0.00030389888347784387,0.619847283078657
3.181212,0.6098459757971963,0.0003402075880504832,0.00030787791959539334,0.6104940613048423
3.183514,0.5991204839423416,0.0003048936425072312,0.00031235433522763654,0.5997377319200764
3.1858150000000003,0.589102763136896,0.0002730613535668352,0.00031235433522763654,0.5896881788256905
3.188117,0.5798534936816523,0.00024520810074398847,0.0003024067449337628,0.5804011085273301
3.190419,0.5693801732407472,0.00022083650452399785,0.0002820141848313216,0.5698830239301025
3.19272,0.5590038418052075,0.00019895180587747556,0.0002611242452141866,0.5594639178562991
3.1950220000000003,0.5492616692509021,0.00017806186626034062,0.00025067927540561917,0.5496904103925682
3.197323,0.5393424295893661,0.0001561771676138183,0.00025465831152316864,0.5397532650685031
3.199625,0.5295127182404745,0.00013478984848198965,0.00026808755841989824,0.5299155956473764
3.201927,0.5194273538210307,0.00011340252935016103,0.0002854958414341774,0.5198262521918151
3.204228,0.5096901550618723,9.350734876241348e-05,0.0003024067449337628,0.5100860691555685
3.20653,0.4998892917248331,7.609906574813439e-05,0.00031434385328641133,0.5002797346438677
3.208832,0.4894776463437501,6.167505982201741e-05,0.0003188202689186545,0.4898581416724908
3.211133,0.4799011011678379,4.9240571954675187e-05,0.0003227993050362041,0.4802731410448288
3.213435,0.4704066236118501,3.680608408733297e-05,0.00033473641338885264,0.4707781661093263
3.215736,0.4602088514220854,2.337683719060337e-05,0.00035662111203537485,0.4605888493713114
3.218038,0.4508914409733285,1.1439728837954844e-05,0.00037850581068189716,0.4512813865128483
3.22034,0.4415387165790283,2.984277088162133e-06,0.0003894481600051584,0.4419311490161216
3.222641,0.431476728996775,3.481656602855822e-06,0.0003904429190345457,0.4318706535724125
3.224943,0.42215583689141534,1.243448786734222e-05,0.00039641147321087,0.4225646828524936
3.227245,0.4127951544248801,2.7853252822846577e-05,0.0004182961718573923,0.4132413038495603
3.229546,0.4037189730407496,4.625629486651306e-05,0.0004491337017684009,0.4042143630373845
3.231848,0.3941001506060884,6.167505982201741e-05,0.00047300791847369804,0.3946348335843841
3.234149,0.3855457203328717,7.062789108650379e-05,0.00047997123167940964,0.3860963194556376
3.236451,0.3762178649143062,7.759120429221545e-05,0.0004764895750765538,0.376771945693675
3.238753,0.36733615892042093,8.85335536154766e-05,0.0004725105389590044,0.3678972030129956
3.241054,0.3587802365086602,0.00010395231857098095,0.0004745000570177791,0.3593586888842489
3.2433560000000003,0.3501377700613426,0.00012036584255587268,0.0004854424063410401,0.3507435783102395
3.245658,0.3420160599659093,0.00013180557139382752,0.0005083218640169501,0.3426561874013201
3.247959,0.33303139641248264,0.00013876888459953918,0.0005351803578104091,0.33370534565489257
3.250261,0.32512554902642643,0.0001427479207170887,0.0005530860203393818,0.3258213829674829
3.252562,0.3174261141389681,0.0001462295773199445,0.0005540807793687694,0.3181264244956568
3.254864,0.31020316882658633,0.0001507059929521877,0.0005491069842218324,0.3109029818037604
3.257166,0.3019168261117895,0.00015766930615789936,0.000554578158883463,0.3026290735768309
3.259467,0.2952091659766304,0.00016662213742238576,0.000576960237044679,0.2959527483510975
3.261769,0.2875967725042435,0.00017607234820156582,0.0006008344537499761,0.288373679306195
3.264071,0.2809070180316134,0.00018253828189258376,0.0006082951464703813,0.28169785145997633
3.266372,0.274427157714184,0.0001865173180101333,0.0005998396947205888,0.27521351472691474
3.2686740000000003,0.26798410348084195,0.00019099373364237648,0.0005923790020001832,0.2687674762164846
3.270975,0.2615062326814714,0.00019845442636278184,0.0006013318332646697,0.26230601894109884
3.273277,0.2555138042884418,0.0002079046371419619,0.0006197348753083363,0.2563414438008921
3.275579,0.25004064010875243,0.00021834960695052937,0.0006291850860875162,0.2508881748017905
3.27788,0.24453415150157864,0.00022730243821501582,0.0006192374957936426,0.2453806914355873
3.280182,0.2390684480146097,0.00023426575142072745,0.0006033213513234446,0.23990603511735384
3.282484,0.2340921659700993,0.00023774740802358325,0.0005973527971471202,0.23492726617527004
3.284785,0.2289985023601213,0.00023923954656766431,0.0006092899054997688,0.2298470318121887
3.287087,0.2242659362778108,0.00024122906462643905,0.0006346562607491469,0.2251418216031864
3.289388,0.21982035817547865,0.00024670023928806964,0.0006664885496895429,0.22073354696445624
3.29169,0.21574333829353448,0.0002551556910378624,0.000706278910865038,0.21670477289543735
3.293992,0.21144249762997813,0.00026361114278765504,0.0007570116213637943,0.2124631203941296
3.296293,0.207709664372202,0.0002705744559933667,0.0008241578558474422,0.2088043966840428
3.298595,0.20428968282916815,0.0002745534921109162,0.0009161730660657748,0.20548040938734488
3.300897,0.20133077209625544,0.00027704038968438463,0.0010435022218273592,0.2026513147077672
3.3031980000000005,0.19823955841243412,0.00027902990774315953,0.0012150981543966814,0.19973368647457398
3.3055,0.19618985743238146,0.00028251156434601517,0.0014414058335823102,0.1979137748303098
3.307801,0.19454402861826006,0.00029046963658111433,0.0017318754701634244,0.19656637372500455
3.310103,0.19330107721104053,0.00029991984736029434,0.002085512305110637,0.19568650936351148
3.3124050000000005,0.1922799570673744,0.00030041722687498807,0.0024903792300713,0.19507075352432066
3.314706,0.19174925312519625,0.0002849984619194837,0.002934539136692764,0.1949687907238085
3.317008,0.191437893548998,0.0002611242452141866,0.003406054916622381,0.19510507271083447
3.31931,0.19023970629810089,0.00024321858268521381,0.0038929894615075023,0.1943759143422936
3.321611,0.18794429983778949,0.00024122906462643905,0.004382410903966092,0.19256793980638204
3.323913,0.18470735395616295,0.00025018189589092545,0.004856413581469177,0.1898139494335231
3.326214,0.1820433892754636,0.00026062686569949296,0.005296097072458399,0.18760011321362147
3.3285160000000005,0.1778171555391113,0.000268584937934592,0.005680571437316618,0.1837663119143625
3.330818,0.17258671256259248,0.00027604563065499724,0.0059879519773973185,0.1788507101706448
3.3331190000000004,0.16702949124491984,0.00028599322094887097,0.0061953592350245884,0.17351084370089334
3.335421,0.1621889938079209,0.00029693557027213216,0.0062978194150514885,0.1687837487932445
3.3377230000000004,0.15735645444315702,0.00030389888347784387,0.006302793210198424,0.16396314653683328
3.340024,0.15380665684678815,0.00030389888347784387,0.006222217728818047,0.16033277345908406
3.3423260000000004,0.15070350605461422,0.00030041722687498807,0.006102846645291561,0.15710676992678074
3.344627,0.14774658483976025,0.00029892508833090695,0.005999889085749968,0.15404539901384112
3.3469290000000003,0.14470560648692304,0.0003024067449337628,0.005955622308942229,0.15096363554079906
3.349231,0.14232514812959907,0.00030837529911008707,0.005981983423220995,0.14861550685193015
3.351532,0.1408011772965776,0.00031285171474233027,0.006084443603247895,0.1471984726145678
