Wavelength,d_NH3_CH3OH_50_10K_I10m_Baselined,H2O_CH4_10_0.6_a_V3,CH3OH,all
2.85208,0.0013518166691049154,0.2362573118182336,0.011843535419965068,0.2494526639073036
2.854382,0.0014099330649226488,0.2460648198922816,0.012844211848793094,0.2603189648059973
2.8566830000000003,0.0014656075953698887,0.25616193319927005,0.014127656287524203,0.27175519708216417
2.858985,0.0015247007373358188,0.2662502557909247,0.015598635986709176,0.2833735925149697
2.861286,0.001589654356190932,0.27700471925565,0.01706912731282005,0.2956635009246609
2.863588,0.0016609568250093275,0.2882563465098075,0.018509339508336817,0.3084266428431537
2.8658900000000003,0.0017386081437910045,0.2988809027368225,0.020511669112141064,0.3211311799927546
2.868191,0.0018260269240546528,0.3103855072433631,0.0225159522082417,0.3347274863756595
2.870493,0.0019246782850225691,0.3220278329567996,0.0244992352621561,0.34845174650397825
2.872795,0.0020257715113609787,0.3335119257942281,0.02645858803543967,0.3619962853410287
2.875096,0.002117585649291515,0.3450829490388462,0.028487289785245243,0.37568782447338295
2.877398,0.002189376491184009,0.3570290428043719,0.03084710847928966,0.3900655277748456
2.879699,0.002252376617742728,0.368907252712598,0.03282257756401849,0.4039822068943593
2.882001,0.0023207488481165315,0.3806833926483375,0.03508569838939138,0.41808983988584536
2.884303,0.002402795524565096,0.3916502984002955,0.037055795370305115,0.4311088892951657
2.886604,0.0024926561701992373,0.4043563006691187,0.0391890089579678,0.4460379657972857
2.888906,0.0025815400696851823,0.41680786056633656,0.041197687411735316,0.460587088047757
2.891208,0.0026645634922819435,0.4284638607258478,0.04327571484202485,0.4744041390601546
2.893509,0.0027363543341744376,0.44011400040846976,0.045332253857054035,0.4881826085996983
2.895811,0.0027954474761403675,0.4517822098948335,0.04683693129835182,0.5014145886693256
2.898112,0.0028540522450321987,0.4637234199296182,0.04894719135153185,0.5155246635261823
2.900414,0.002932680309962073,0.4748749307035856,0.05052317126164803,0.5283307822751957
2.902716,0.0030337735363004823,0.4866500938931768,0.05252891947697096,0.5422127869064483
2.905017,0.003110448108933962,0.4975012552265736,0.054547853765294564,0.5551595571008021
2.907319,0.003107029497415272,0.5090439528328939,0.05709032398905186,0.5692413063193611
2.909621,0.003037192147819173,0.5188392515800895,0.059330002906868025,0.5812064466347766
2.911922,0.003009843255669652,0.5276319204061606,0.062215311028642535,0.5928570746904728
2.9142240000000004,0.0031299830318979064,0.5400536895458583,0.06476217661006671,0.6079458491878229
2.916525,0.0033917509996147545,0.5499119884196126,0.06790632246111347,0.6212100618803409
2.918827,0.003714077228519828,0.5601399857104596,0.07047809506931668,0.6343321580082961
2.921129,0.004038356949721296,0.5700837498721811,0.07364910143943887,0.6477712082613414
2.92343,0.004417822828295906,0.579340373118646,0.07745010907514825,0.6612083050220902
2.925732,0.004939893644507306,0.5888299503214558,0.08060353401460289,0.6743733779805661
2.928034,0.0056831974632853685,0.5974751304791489,0.08440649514260866,0.6875648230850431
2.930335,0.00670975766504062,0.6054478209138088,0.08770252501970009,0.6998601035985496
2.932637,0.00807720227251669,0.6151220031386279,0.09151964896685473,0.7147188543779993
2.9349380000000003,0.009788949897232271,0.6227440417060846,0.09489137667043143,0.7274243682737482
2.93724,0.011791767874110615,0.6306957320985579,0.09864794235639784,0.7411354423290664
2.939542,0.014020702584296612,0.6383719800772397,0.10192101869900663,0.7543137013605429
2.941843,0.016323381628671498,0.6429504776469139,0.10588465456839086,0.7651585138439763
2.944145,0.01850738601604042,0.6515668437932356,0.10924124270667053,0.7793154725159466
2.946447,0.02041741310884003,0.6604283732227546,0.11262371461787735,0.793469500949472
2.948748,0.02201243956884605,0.6634597048936847,0.11607358201330985,0.8015457264758405
2.95105,0.023277325830761413,0.6722206294699393,0.11890077373926665,0.8143987290399674
2.953351,0.024228676579105483,0.6785792468947031,0.1216752211732208,0.8244831446470293
2.955653,0.024933887298103856,0.6852836324559286,0.12438715685369027,0.8346046766077228
2.957955,0.02546181859120444,0.6898709207409367,0.1267157196709924,0.8420484590031335
2.960256,0.025836889112112158,0.696583608644422,0.12901693359614494,0.8514374313526791
2.962558,0.026057145368530626,0.7005941283289197,0.1315891945774223,0.8582404682748725
2.96486,0.026113796645126062,0.7066240706748149,0.1338518270297211,0.8665896943496622
2.967161,0.02597363357285977,0.7109661956766257,0.13630297148862194,0.8732428007381073
2.969463,0.02559709793272975,0.714267109284458,0.13795025386755652,0.8778144610847444
2.971764,0.024962701309475668,0.7200201440973395,0.14038430526886392,0.8853671506756791
2.974066,0.024091443745283776,0.7255236202693566,0.1428256822662828,0.8924407462809232
2.976368,0.02301213925152588,0.7298330242752027,0.14482752349701294,0.8976726870237415
2.978669,0.02178241585094561,0.7347611969659316,0.14701103951130776,0.903554652328185
2.980971,0.02049359930839941,0.7398871607516704,0.1494069978128355,0.9097877578729052
2.983273,0.01923457352337323,0.7437677731984579,0.1521526312354178,0.9151549779572488
2.985574,0.01806492001090709,0.7457593585946319,0.1550735905916015,0.9188978691971406
2.987876,0.017032499332262658,0.7519558361587949,0.1579598754595242,0.9269482109505818
2.990177,0.016169055737256337,0.7571140325674244,0.16086716036963314,0.9341502486743138
2.992479,0.015460914779813375,0.7599304800857509,0.1646154237133399,0.9400068185789042
2.994781,0.014882681060080637,0.7643233958872678,0.1675378481887459,0.9467439251360944
2.997082,0.014410424297427291,0.7675701000838753,0.1712240881520421,0.9532046125333448
2.999384,0.014021190957370713,0.7717867132056425,0.17497674685341572,0.9607846510164291
3.001686,0.013693004251576454,0.7764145364558008,0.17861512625545026,0.9687226669628276
3.003987,0.013421468822377634,0.7796675895023716,0.18175585349497836,0.9748449118197277
3.006289,0.013213910265885729,0.78243422296714,0.18548018655805426,0.98112831979108
3.0085900000000003,0.013075212312841731,0.7863905332404129,0.18927386859765213,0.9887396141509068
3.010892,0.01299463075561546,0.7898955867932185,0.19309636464862184,0.9959865821974558
3.013194,0.012956537655835772,0.7924439174938651,0.19691934907266567,1.0023198042223669
3.015495,0.012948723686650192,0.7961892505991272,0.20079458941563805,1.0099325637014154
3.0177970000000003,0.012961909759650857,0.7989383026332281,0.203825432713494,1.015725645106373
3.020098,0.012988770278726277,0.8015930986640281,0.20783888263643616,1.0224207515791903
3.0224,0.013019537782394487,0.8027017055422321,0.21102405182570724,1.0267452951503335
3.024702,0.013041026197654829,0.8027261241959369,0.21400849968152372,1.0297756500751154
3.027003,0.013042002943803024,0.8037585448745813,0.21669357484291785,1.033494122661302
3.029305,0.013023933140061377,0.8082828330330306,0.22030216348743234,1.0416089296605242
3.031607,0.01299463075561546,0.8099857899424124,0.22297063396430716,1.045951054662335
3.0339080000000003,0.012962398132724956,0.8104614653165845,0.22493584721447987,1.0483597106637892
3.03621,0.012937979479020027,0.8108663265950121,0.2277952715633272,1.0515995776373592
3.038511,0.012931630629056744,0.8097586964629567,0.2298439966091708,1.0525343237011842
3.040813,0.012949212059724291,0.8113019553771083,0.23187807046279146,1.0561292378996239
3.043115,0.012987305159503984,0.8108560707604562,0.2338965163780409,1.057739892298001
3.045416,0.013042002943803024,0.8093997422534941,0.2355765197529401,1.0580182649502372
3.047718,0.013107444935732236,0.8081705072259879,0.2371915695089841,1.0584695216707043
3.05002,0.013178259031476531,0.8067102717344332,0.2387323865577652,1.058620917323675
3.052321,0.01324858475414673,0.8049496868023078,0.2403425525830683,1.0585408241395229
3.054623,0.013323305834483816,0.8027681242803093,0.2410926936248837,1.0571841237396769
3.056924,0.013408282749376972,0.7977881840437259,0.24185602073969986,1.053052487532803
3.059226,0.013505468991122592,0.7962039017913501,0.2426994410386681,1.0524088118211408
3.061528,0.013605097098238705,0.7936653385521855,0.24352625665311706,1.0507966923035412
3.063829,0.013696422863095144,0.7893657020078215,0.2442871419025627,1.0473492667734794
3.066131,0.013770167197284031,0.7867680456266911,0.2442397697143751,1.0447779825383503
3.068433,0.013822423116212582,0.7815136397224642,0.24433744432919485,1.0396735071678718
3.070734,0.013848795262213907,0.7771881194051731,0.2451193296208267,1.0361562442882135
3.073036,0.013848306889139808,0.7724020632790068,0.2451452133937539,1.0313955835619006
3.075337,0.013820957996990286,0.767841635513074,0.24512519009771586,1.02678778360778
3.077639,0.013769190451135836,0.7629813466796449,0.24431449079471215,1.021065027925493
3.079941,0.01370179496691023,0.7561734260267103,0.24434037456763935,1.01421559556126
3.082242,0.013629027378869537,0.7513160674317257,0.24427297908341386,1.009218073894009
3.084544,0.013560166775421635,0.745556683768881,0.2435233264146725,1.002640176958975
3.086846,0.013502538752678005,0.7400869053389767,0.24269455730792716,0.9962840013995818
3.089147,0.013462980533676016,0.7336437993723941,0.2419502767430009,0.9890570566490708
3.0914490000000003,0.013451747952971748,0.7274336473621562,0.2410331121098437,0.9819185074249716
3.09375,0.013479096845121271,0.7189628163919161,0.23979606311315196,0.9722379763501894
3.096052,0.013552352806236059,0.7136263638112406,0.2387143167540236,0.9658930333715
3.098354,0.013656864644093158,0.7070318621916873,0.2379475710276888,0.9586362978634692
3.100655,0.013770167197284031,0.6998547314947343,0.23628710257575355,0.949912001267772
3.102957,0.013868818558251951,0.6926522053979283,0.2351990073666619,0.941720031322842
3.105259,0.01392791170021788,0.6848367710931283,0.23315663117078156,0.9319213139641278
3.10756,0.013922539596402795,0.6772621047138591,0.2316192327335192,0.9228038770437809
3.109862,0.013852213873732595,0.6693851354017231,0.2300408109580325,0.913278160233488
3.112163,0.013741353185912216,0.6613064680099839,0.22781431811321698,0.9028621393091132
3.114465,0.013616329678942976,0.6532375680797269,0.22550431347273064,0.8923582112314005
3.116767,0.013489352679677338,0.6448824815280481,0.22326951828565544,0.8816413524933808
3.119068,0.013367259411152691,0.6361635570361659,0.22090969959161105,0.8704405160389297
3.12137,0.01325639872333231,0.6278797729533054,0.21824513609932908,0.8593813077759668
3.123672,0.013163119466179476,0.6190509645197511,0.2156479680912728,0.8478620520772032
3.125973,0.013095235608879771,0.6100228998719645,0.21289452069950487,0.8360126561803491
3.128275,0.013053235524507292,0.6011306029387772,0.2100526777813251,0.8242365162446096
3.130576,0.013023933140061377,0.5920766545180632,0.2070374624218404,0.812138050079965
3.132878,0.012994142382541363,0.5827321241182607,0.203384920200657,0.7991111867014591
3.13518,0.012960444640428559,0.5734325240412752,0.2006739612663357,0.7870669299480394
3.137481,0.01292577015216756,0.56400545859195,0.19708441917171102,0.7740156479158284
3.139783,0.012893049156202955,0.5550096265670538,0.19351001664238335,0.7614126923656401
3.142085,0.012858863041016052,0.5455390959141339,0.18998884677813246,0.7483868057332823
3.144386,0.012819304822014066,0.5357267041093449,0.1865692585132941,0.7351152674446529
3.146688,0.012769979141530108,0.5263162433445391,0.183061763095118,0.7221479855811871
3.148989,0.012708444134193685,0.5174390859766488,0.1789511269304301,0.7090986570412726
3.151291,0.012634211426930695,0.5071690886014295,0.1757581437719735,0.6955614438003337
3.153593,0.012548257765889343,0.4979315119048544,0.17163432153428493,0.6821140912050286
3.155894,0.012457420374107006,0.4884116555714506,0.16779717429109225,0.6686662502366498
3.158196,0.01236609460925057,0.4787389384658536,0.16358251466162135,0.6546875477367256
3.160498,0.01227476884439413,0.4691746401827067,0.15999785629773766,0.6414472653248385
3.162799,0.012177582602648509,0.4598721098672767,0.15586719683701172,0.6279168893069369
3.165101,0.012071117272495014,0.4498296943445873,0.15255456227540096,0.6144553738924833
3.167402,0.011953419361637251,0.44082507160435735,0.14849032155275246,0.6012688125187471
3.1697040000000003,0.011823023750852929,0.4312407500251724,0.14499357034220645,0.5880573441182317
3.172006,0.011683837424734828,0.4206279147519358,0.14116912079894034,0.5734808729756109
3.174307,0.011545139471690826,0.4116916642420797,0.137472136628014,0.5607089403417844
3.176609,0.011418162472425192,0.4027407625400006,0.1343582699075613,0.5485171949199871
3.1789110000000003,0.011302906426937922,0.3934694881013128,0.13087714663538655,0.5356495411636373
3.181212,0.011190580619895243,0.3838275384993842,0.12773983800737715,0.5227579571266566
3.183514,0.011073371082111582,0.37484635766671104,0.12421622627775578,0.5101359550265784
3.1858150000000003,0.010952742932809229,0.36535824558312346,0.12120687139516023,0.4975178599110929
3.188117,0.010834556648877369,0.3563912275695992,0.11828542366590244,0.48551120788437896
3.190419,0.010723207587982888,0.34707062745042744,0.1153278363291613,0.4731216713675717
3.19272,0.010620160869348085,0.3383546331969898,0.11249331900709306,0.4614681130734309
3.1950220000000003,0.010526881612195251,0.32896859108588883,0.10968468545795204,0.4491801581560361
3.197323,0.010441416324227995,0.3204078994700145,0.10677886566706538,0.4376281814613079
3.199625,0.010361811513149927,0.3118940916692537,0.1042280931010484,0.4264839962834521
3.201927,0.010284648567442349,0.30310337633547896,0.1017652276883692,0.4151532525912905
3.204228,0.010214811217846249,0.2941011954606195,0.09909529209227216,0.4034112987707379
3.20653,0.010161090179695405,0.2858725975351323,0.09672717105596804,0.39276085877079575
3.208832,0.010129834302953092,0.2768586957064945,0.09472239958679332,0.3817109295962409
3.211133,0.01011567148380423,0.26914044764344025,0.09254669754168407,0.37180281666892856
3.213435,0.010108834260766857,0.261154082762706,0.08969020343128138,0.3609531204547542
3.215736,0.010105415649248162,0.2531540434358968,0.08762292020862203,0.3508823792937669
3.218038,0.010109322633840952,0.24517060879360705,0.08562010223174367,0.34090003365919164
3.22034,0.010124950572212106,0.2377019193714172,0.08360898191260566,0.331435851856235
3.222641,0.01015132271821343,0.23002811325810596,0.08194997857989272,0.3221294145562121
3.224943,0.010178671610362951,0.22235430714479468,0.07988074186493697,0.3124137206200946
3.227245,0.010200648398697387,0.21486071069582585,0.07789550531872617,0.3029568644132494
3.229546,0.010218718202439038,0.20772606845631944,0.07672585180626003,0.2946706384650185
3.231848,0.010237276379254786,0.20061340300514746,0.07479628979049648,0.28564696917489873
3.234149,0.01025974154066332,0.1935686214112752,0.07292777440899524,0.2767561373609337
3.236451,0.010282695075145952,0.1865707236325164,0.07170049287378548,0.2685539115814478
3.238753,0.010300764878887602,0.18016766425800967,0.06974309359279829,0.26021152272969555
3.241054,0.010309555594221377,0.17370160475694427,0.06850409110381016,0.2525152514549758
3.2433560000000003,0.010306136982702687,0.16714324274487422,0.06667025021056992,0.24411962993814684
3.245658,0.01028709043281284,0.16100536994960307,0.06550596880191888,0.2367984291843348
3.247959,0.01025974154066332,0.15505600916093396,0.06357103468234024,0.2288867853839375
3.250261,0.010236788006180686,0.1492668347405692,0.06234619501250095,0.22184981775925086
3.252562,0.010229462410069206,0.14396017291741384,0.0611135413734761,0.21530317670095914
3.254864,0.010234834513884293,0.13869844141707555,0.059258700438049636,0.2081919763690095
3.257166,0.01024557872151446,0.1337048267344174,0.05808953529865759,0.20203994075458948
3.259467,0.010257788048366924,0.12825409485440298,0.05684076534818747,0.19535264825095736
3.261769,0.0102670671367748,0.1234431317014577,0.055635948974386236,0.18934614781261871
3.264071,0.010271462494441686,0.11893447148137945,0.054067783033455635,0.1832737170092768
3.266372,0.010271462494441686,0.1145674394527898,0.05318138590396669,0.1780202878511982
3.2686740000000003,0.010269020629071193,0.11022384933175687,0.051418359106470746,0.17191122906729886
3.270975,0.010267555509848895,0.10621039940881463,0.05020670550963213,0.16668466042829566
3.273277,0.010265113644478404,0.1020694841135326,0.04897942397442236,0.16131402173243334
3.275579,0.010257788048366924,0.09857029103761616,0.04779414252358506,0.15662222160956815
3.27788,0.010242648483069869,0.09481323697857566,0.04663083786108221,0.15168672332272776
3.280182,0.010218229829364937,0.09152355595144752,0.045415765652724906,0.14715755143353734
3.282484,0.010184532087252134,0.08842775903473651,0.0448243458599915,0.14343663698198014
3.284785,0.010142043629805557,0.08531486906043206,0.04356483170189122,0.13902174439212886
3.287087,0.0100922295762475,0.08259365429155467,0.042391271204832284,0.13507715507263446
3.289388,0.01003704341887436,0.07996669552597832,0.04125629218062715,0.13126003112547985
3.29169,0.00997404329231564,0.07769576073141986,0.04063850024189242,0.12830830426562792
3.293992,0.009898345465830358,0.07554301222079322,0.039429776883498406,0.12487113457012199
3.296293,0.009806531327899822,0.07368182243540349,0.0385624263038993,0.1220507800672026
3.298595,0.009702996236190921,0.07227774984737001,0.0376213313901113,0.11960207747367226
3.300897,0.00959506578681513,0.07113202661553471,0.03699133012452411,0.11771842252687395
3.3031980000000005,0.009485670218217043,0.07071593275640271,0.035919351226877685,0.11612095420149746
3.3055,0.009372367665026169,0.07087904936315162,0.03537188501081316,0.11562330203899095
3.307801,0.009251739515723816,0.07181428380005045,0.034815139706340766,0.11588116302211506
3.310103,0.00912866950105097,0.07410377677142466,0.034520650742659316,0.11775309701513495
3.3124050000000005,0.009018297186304687,0.07810941272518138,0.034358999255132666,0.12148670916661874
3.314706,0.008931855152189234,0.08442456494635031,0.0343487434205766,0.12770516351911615
3.317008,0.00886006431029674,0.09217065027462816,0.0349064654711972,0.1359371800561221
3.31931,0.00878143624536687,0.10009889875954477,0.035423652556667615,0.14430398756157925
3.321611,0.00868278488439895,0.1063910974462311,0.03615474704859322,0.15122862937922327
3.323913,0.008570947450430372,0.1094522198746811,0.03826012337103226,0.15628329069614372
3.326214,0.008459110016461794,0.10619867845503624,0.0405427791193691,0.15520056759086714
3.3285160000000005,0.0083526446863083,0.0970001716043892,0.043263017142098285,0.14861583343279575
3.330818,0.0082476444753771,0.08352986547460169,0.04733458346085829,0.13911209341083708
3.3331190000000004,0.008141179145223606,0.06918830178062227,0.05151359185591998,0.12884307278176588
3.335421,0.008037644053514705,0.05744439446777335,0.05622639202097144,0.1217084305422595
3.3377230000000004,0.007948271780954662,0.049687076558791225,0.06147493744830905,0.11911028578805495
3.340024,0.00788234141595135,0.04510418363145,0.06666976183749583,0.11965628688489717
3.3423260000000004,0.007839852958504773,0.0419742005995521,0.0722191450784782,0.12203319863653507
3.344627,0.007816899424022139,0.04011105732186595,0.07648654899995172,0.12441450574583983
3.3469290000000003,0.0078120156932811515,0.03856682166156618,0.08021625416684271,0.12659509152169005
3.349231,0.00782715525857821,0.03724626086920357,0.08302537608905783,0.12809879221683962
3.351532,0.007864759985283801,0.03633837532445428,0.08530558997202417,0.12950872528176227
3.3538339999999995,0.007922388008027434,0.03545588517955812,0.08621152202447707,0.12958979521206265
3.356135,0.007991736984549436,0.03482637228704503,0.08684103491699018,0.12965914418858465
3.3584370000000003,0.008064016199516029,0.033968300795853786,0.08679756971339539,0.12882988670876522
3.360739,0.008128481445297044,0.03327822964215248,0.08675508125594883,0.12816179234339836
3.3630400000000003,0.008174388514262311,0.032671670284122024,0.08738264065616551,0.12822869945454984
