Wavelength,d_NH3_CH3OH_50_10K_I10m_Baselined,H2O_CH4_10_0.6_a_V3,H2O_CH3OH_CO_NH3_100K_NASA,all
2.85208,0.0013783113375936615,0.2408877911559466,0.07327806168772429,0.3155441641812646
2.854382,0.0014375667744338518,0.2508875195813642,0.07834813612391603,0.33067322247971404
2.8566830000000003,0.001494332487037059,0.26118252930128794,0.08354468855134645,0.34622155033967145
2.858985,0.0015545838135720418,0.2714685760139585,0.08866306363773563,0.3616862234652662
2.861286,0.0016208104782757837,0.2824338194984781,0.09459707238416036,0.3786517023609142
2.863588,0.0016935104259956804,0.2939059708376473,0.09955560717453524,0.3951550884381783
2.8658900000000003,0.0017726836567317327,0.3047387609927593,0.10448326938437154,0.41099471403386256
2.868191,0.001861815784415716,0.3164688477628799,0.10941142953905526,0.4277420930863509
2.870493,0.00196240064358982,0.3283393549799664,0.1145915497865216,0.4448933054100778
2.872795,0.0020654752270009057,0.3400485280664964,0.1189261596831086,0.4610401629766059
2.875096,0.0021590888583114588,0.35184633533586296,0.12390909377100592,0.4779145179651803
2.877398,0.002232286750878752,0.3640265642480301,0.12827507419297893,0.4945339251918878
2.879699,0.0022965216361929075,0.3761375788264091,0.1327685284958854,0.5112026289584874
2.882001,0.002366233914828425,0.3881445229316821,0.1370578254113593,0.5275685822578698
2.884303,0.0024498886491910463,0.3993263724248192,0.14107026499168074,0.5428465260656911
2.886604,0.002541510501112012,0.4122814035195353,0.14523756541954252,0.5600604794401898
2.888906,0.0026321364633381853,0.4249770053487579,0.14955574313616546,0.5771648849482616
2.891208,0.002716787087395599,0.4368614550215715,0.15351938412144198,0.5930976262304091
2.893509,0.002789984979962893,0.4487399293562162,0.15742127994564142,0.6089511942818205
2.895811,0.002850236306497876,0.4606368276502147,0.1613406038394997,0.6248276677962122
2.898112,0.0029099896881854613,0.4728120771139078,0.16599539227296267,0.6417174590750561
2.900414,0.0029901588086163073,0.4841821497593608,0.16994558874735952,0.6571178973153365
2.902716,0.003093233392027394,0.49618809797493896,0.1745919121184168,0.6738732434853831
2.905017,0.003171410733068653,0.5072519345392431,0.17869447971611696,0.6891178249884288
2.907319,0.003167925119136877,0.5190208610074607,0.18310328339496607,0.7052920695215636
2.909621,0.0030967190059591697,0.5290081408116933,0.18755491033069127,0.7196597701483438
2.911922,0.0030688340945049628,0.5379731398442209,0.1923297034723768,0.7333716774111028
2.9142240000000004,0.003191328526964516,0.5506383670377522,0.19720458352838907,0.7510342790931057
2.916525,0.0034582269651690684,0.5606898817272989,0.20250122287014624,0.7666493315626144
2.918827,0.0037868705644507937,0.5711183406663252,0.20760067605233434,0.7825058872831103
2.921129,0.004117505943122106,0.5812569957041664,0.2125392930488134,0.7979137946961019
2.92343,0.004504409089549228,0.5906950423417207,0.21769949550238388,0.8128989469336537
2.925732,0.005036712131416145,0.6003706086714831,0.22322419358424864,0.8286315143871478
2.928034,0.0057945841891537,0.6091852283600968,0.22914326398525145,0.8441230765345019
2.930335,0.006841264258381256,0.6173141779938457,0.23374377643034824,0.8578992186825752
2.932637,0.008235509831091605,0.627177967475924,0.24092015757102736,0.8763336348780429
2.9349380000000003,0.00998080652121653,0.634949392709242,0.2466221240185653,0.8915523232490239
2.93724,0.0120228783403898,0.6430569307145526,0.2524351321670727,0.9075149412220151
2.939542,0.014295498623907669,0.6508836278259317,0.2585887345911993,0.9237678610410388
2.941843,0.016643308579382426,0.6555518607702744,0.2647567774159004,0.9369519467655572
2.944145,0.018870117936939813,0.6643371017128918,0.27061958004914743,0.9538267996989792
2.946447,0.02081758023510773,0.6733723109689023,0.2763325012833281,0.970522392487338
2.948748,0.022443868106704883,0.6764630546366928,0.2826489316725534,0.9815558544159512
2.95105,0.023733545261461958,0.6853956872541395,0.2885296603203067,0.997658892835908
2.953351,0.024703541824190448,0.6918789291672427,0.294331215737324,1.0109136867287571
2.955653,0.025422574183831072,0.6987147160323025,0.2983137786268016,1.0224510688429351
2.957955,0.025960852563866745,0.7033919119838984,0.3049732930158831,1.034326057563648
2.960256,0.026343274206667298,0.7102361639113641,0.3102111748656474,1.0467906129836786
2.962558,0.02656784733284314,0.7143252869981845,0.3138626044316064,1.054755738762634
2.96486,0.026625608935141147,0.7204734120289898,0.3204060976712445,1.0675051186353754
2.967161,0.02648269876393833,0.7249006396671925,0.32588946633077537,1.0772728047619062
2.969463,0.02609878328659559,0.7282662488907459,0.3308061737539689,1.0851712059313103
2.971764,0.02545195292982746,0.7341320391930772,0.3360704466806453,1.09565443880355
2.974066,0.024563619322072013,0.739743379678389,0.3414024401065676,1.1057094391070286
2.976368,0.023463161209325633,0.7441372450118162,0.3456299918609643,1.1132303980821059
2.978669,0.022209336083581104,0.7491620064668948,0.3501085078184489,1.121479850368925
2.980971,0.0208952596313016,0.754388435585169,0.3556103004373335,1.130893995653804
2.983273,0.019611557814713285,0.758345105342582,0.360072384214854,1.1380290473721493
2.985574,0.018418979905198533,0.7603757244302652,0.3650926641663061,1.14388736850177
2.987876,0.01736632449780222,0.7666936486540327,0.3698500292383327,1.1539100023901676
2.990177,0.016485958007605113,0.7719529421322351,0.3745705463916521,1.1630094465314924
2.992479,0.01576393797888011,0.7748245900671711,0.3791566184361743,1.1697451464822255
2.994781,0.015174371279562587,0.7793036039695029,0.38382983082899097,1.1783078060780563
2.997082,0.014692858612130119,0.7826139413149953,0.3885015493872655,1.185808349314391
2.999384,0.01429599656875507,0.7869131971274171,0.3921753864713573,1.1933845801675296
3.001686,0.013961377631304584,0.7916317225013471,0.39723052256212704,1.2028236226947786
3.003987,0.0136845202961521,0.7949485331298554,0.402383753787834,1.2110168072138414
3.006289,0.013472893736008565,0.7977693906903568,0.406280172218712,1.2175224566450775
3.0085900000000003,0.013331477399347943,0.8018032418991163,0.41063071635041576,1.2257654356488799
3.010892,0.013249316499527512,0.8053769920688814,0.4145883819975235,1.2332146905659325
3.013194,0.01321047680143058,0.8079752682825967,0.41876912693626506,1.2399548720202924
3.015495,0.013202509683872234,0.8117940073172807,0.4228682089200335,1.2478647259211864
3.0177970000000003,0.013215954194751944,0.814596938863276,0.4262751475659207,1.2540880406239487
3.020098,0.013243341161358752,0.8173037670537237,0.4302512371723822,1.2607983453874645
3.0224,0.013274711686744736,0.8184341018573139,0.4333140959287183,1.2650229094727772
3.024702,0.013296621260030185,0.8184589990996837,0.4364222676661677,1.2681778880258814
3.027003,0.013297617149724977,0.81951165450708,0.44008066845999017,1.2728899401167952
3.029305,0.013279193190371305,0.8241246155733616,0.44251910437769104,1.2799229131414238
3.031607,0.013249316499527512,0.8258609492562334,0.4457881123008494,1.2848983780566103
3.0339080000000003,0.01321645213959934,0.8263459475375977,0.4488893128104352,1.2884517124876322
3.03621,0.013191554897229512,0.8267587438160893,0.4509428373610985,1.2908931360744174
3.038511,0.013185081614213357,0.8256294049021942,0.4533289890698228,1.2921434755862304
3.040813,0.01320300762871963,0.8272029106199672,0.4561438712921556,1.2965497895408424
3.043115,0.013241847326816564,0.826748286974294,0.4581062719357454,1.298096406236856
3.045416,0.013297617149724977,0.8252634154393576,0.4600945657113999,1.2986555983004824
3.047718,0.013364341759276114,0.8240100882584604,0.461001323278509,1.2983757532962454
3.05002,0.013436543762148614,0.8225212331647447,0.4632624908305367,1.2992202677574298
3.052321,0.013508247820173718,0.8207261419898803,0.4642145613787589,1.2984489511888129
3.054623,0.013584433381825392,0.8185018223565597,0.4659240060398713,1.2980102617782563
3.056924,0.013671075785272394,0.813424278747657,0.466024092954198,1.2931194474871273
3.059226,0.013770166809904307,0.8118089456627027,0.4670642997404094,1.2926434122130164
3.061528,0.013871747558773205,0.8092206283459353,0.4683992898762796,1.291491665780988
3.063829,0.01396486324523636,0.8048367219094561,0.4690625524130118,1.2878641375677042
3.066131,0.01404005291719324,0.8021881532661538,0.4694160932546633,1.2856442994380104
3.068433,0.014093333015864669,0.7968307646530143,0.4696043164069793,1.2805284140758582
3.070734,0.014120222037624084,0.7924204671396231,0.4696182588627063,1.2761589480399531
3.073036,0.014119724092776688,0.7875406076351368,0.469619254752401,1.2712795864803146
3.075337,0.014091839181322481,0.7828907986501478,0.469619254752401,1.2666018925838711
3.077639,0.014039057027498449,0.7779352515288573,0.4693588295972127,1.2613331381535684
3.079941,0.013970340638557722,0.7709939003561493,0.4682867543407679,1.2532509953354751
3.082242,0.013896146856295631,0.7660413409039432,0.4683236022594752,1.2482610900197142
3.084544,0.013825936632812723,0.7601690773185956,0.4677325417256156,1.2417275556770242
3.086846,0.01376717914081993,0.7545920950277542,0.4668705991947722,1.2352298733633462
3.089147,0.013726845608180807,0.7480227086560516,0.4657810958686685,1.2275306501329009
3.0914490000000003,0.013715392876690685,0.7416908419765571,0.4641652648388666,1.2195714996921143
3.09375,0.013743277788144893,0.7330539885984637,0.4632331120845402,1.2100303784711488
3.096052,0.013817969515254377,0.7276129452509614,0.461390716149173,1.2028216309153887
3.098354,0.013924529712597238,0.7208891959765659,0.4602917518709688,1.1951054775601322
3.100655,0.01404005291719324,0.7135713984992261,0.458317898495889,1.1859293499123085
3.102957,0.014140637776367343,0.7062277078898217,0.4570277233962845,1.1773960690624734
3.105259,0.014200889102902325,0.6982590964969346,0.4547227366976858,1.1671827222975226
3.10756,0.014195411709580963,0.6905359719138141,0.4525925286405233,1.1573239122639185
3.109862,0.014123707651555859,0.6825046194701552,0.4508233305977234,1.1474516577194345
3.112163,0.014010674171196842,0.6742676158045213,0.4491153797711532,1.1373936697468714
3.114465,0.013883200290263324,0.6660405710358355,0.4471086620361451,1.1270324333622441
3.116767,0.013753734629940218,0.6575217305865751,0.4441921990649435,1.115467664281459
3.119068,0.01362924841809108,0.6486319212260045,0.4414395599485353,1.1037007295926309
3.12137,0.013516214937732064,0.6401857807244641,0.43955085514236014,1.0932528508045565
3.123672,0.013421107471879322,0.6311839337732292,0.4373260375641924,1.0819310788093008
3.125973,0.0133518931380912,0.6219789253242566,0.4338732879923448,1.0692041064546924
3.128275,0.013309069881215095,0.6129123455428601,0.4319870729104065,1.0582084883344818
3.130576,0.013279193190371305,0.6036809460169754,0.4290417291380559,1.0460018683454029
3.132878,0.013248818554680113,0.5941532693068897,0.42620692912182734,1.0336090169833971
3.13518,0.013214460360209752,0.5846714035227645,0.4233795982783097,1.021265462161284
3.137481,0.013179106276044598,0.5750595741334689,0.4205612304420453,1.0087999108515586
3.139783,0.013145743971269028,0.5658874300444242,0.4178349824025491,0.9968681564182424
3.142085,0.01311088783195127,0.5562312835637103,0.4145943573356923,0.9839365287313541
3.144386,0.01307055429931215,0.5462265756898188,0.41098873869569386,0.9702858686848248
3.146688,0.013020261869725096,0.5366316764253346,0.4082839022846357,0.9579358405796954
3.148989,0.012957520818953131,0.5275805329342074,0.4057070376993586,0.9462450914525192
3.151291,0.012881833202148855,0.5171092507383054,0.4017000755123585,0.9316911594528128
3.153593,0.012794194909007059,0.5076906239497994,0.3991321739343345,0.9196169927931408
3.155894,0.012701577167391304,0.4979841850394985,0.3953622334946952,0.906047995701585
3.158196,0.012608461480928146,0.4881218893919622,0.3925413759341937,0.8932717268070841
3.160498,0.012515345794464993,0.4783701375005481,0.3889915271171037,0.8798770104121167
3.162799,0.012416254769833077,0.4688852840473386,0.3857832684653277,0.8670848072824994
3.165101,0.012307702793100629,0.4586460441503233,0.3826835617902842,0.8536373087337081
3.167402,0.012187698084878056,0.4494649370540256,0.3784510305874134,0.840103665726317
3.1697040000000003,0.012054746810623178,0.4396927694238682,0.3753214472215261,0.8270689634560174
3.172006,0.01191283252911516,0.4288719299450937,0.3718198990546335,0.8126046615288425
3.174307,0.01177141619245454,0.4197605351274316,0.3677970026325168,0.7993289539524029
3.176609,0.011641950532131436,0.4106342019643475,0.3646554685902919,0.7869316210867711
3.1789110000000003,0.01152443554814585,0.4011812169813713,0.3611006403247279,0.7738062928542451
3.181212,0.01140990823324464,0.3913502918592212,0.35753535521736857,0.7602955553098343
3.183514,0.011290401469869468,0.38219308611559855,0.35354034370670595,0.747023831292174
3.1858150000000003,0.01116740909256252,0.3725190136203783,0.3496235095370847,0.7333099322500255
3.188117,0.011046906439492552,0.36337624827733017,0.346262381817158,0.7206855365339807
3.190419,0.01093337501428614,0.3538729708647669,0.3415388769947543,0.7063452228738074
3.19272,0.010828308651485466,0.3449861491732806,0.3377056975594956,0.6935201553842616
3.1950220000000003,0.010733201185632724,0.33541614715116624,0.3342444829252421,0.680393831262041
3.197323,0.010646060837338326,0.3266876719211521,0.3306851731560516,0.6680189059145419
3.199625,0.010564895827212687,0.318006999396488,0.3261498914859637,0.6547217867096644
3.201927,0.010486220541324032,0.30904399214334993,0.3217326227447089,0.6412628354293829
3.204228,0.010415014428146326,0.2998653747712893,0.3173427409700609,0.6276231301694966
3.20653,0.010360240494932706,0.2914755020375047,0.31340449517200153,0.6152402377044389
3.208832,0.010328372024699323,0.2822849339891065,0.30924964336532473,0.6018629493791305
3.211133,0.010313931624124823,0.27441541362085137,0.30472432059218485,0.589453665837161
3.213435,0.010306960396261274,0.26627252153137554,0.30013028143010423,0.5767097633577409
3.215736,0.010303474782329495,0.2581156869861725,0.29598190290644355,0.5644010646749456
3.218038,0.010307458341108671,0.2499757825657811,0.29088095588971324,0.551164196796603
3.22034,0.01032339257622536,0.2423607120145456,0.2866250212790149,0.5393091258697859
3.222641,0.010350281597984774,0.23453650462740355,0.2819831794115842,0.5268699656369725
3.224943,0.01037816650943898,0.2267122972402615,0.2766895277389114,0.5137799914886119
3.227245,0.010400574027571824,0.2190718315018088,0.27200635644914684,0.5014787619785275
3.229546,0.0104189979869255,0.21179735522619253,0.2668740389070306,0.4890903921201486
3.231848,0.010437919891126569,0.2045452864687091,0.2622999175388458,0.4772831238986814
3.234149,0.01046082535410681,0.1973624320450138,0.2573642882114512,0.4651875456105718
3.236451,0.010484228761934446,0.19022738032666855,0.25231861307278186,0.4530302221613849
3.238753,0.01050265272128812,0.18369882543245236,0.24709716340298166,0.4412986415567221
3.241054,0.010511615728541257,0.17710603565292196,0.24183089869691565,0.4294485500783789
3.2433560000000003,0.010508130114609479,0.17041913429723365,0.2372283944724293,0.4181556588842724
3.245658,0.010488710265561016,0.16416096345515374,0.2318720017489846,0.40652167546969936
3.247959,0.01046082535410681,0.15809499932416893,0.2264762713825955,0.3950320960608713
3.250261,0.01043742194627917,0.1521923611031302,0.22113929850819924,0.3837690815576086
3.252562,0.010429952773568221,0.14678169239131925,0.21611752472220494,0.3733291698870924
3.254864,0.010435430166889584,0.14141683460546875,0.21163004575746724,0.3634823105298256
3.257166,0.010446384953532306,0.13632534854083903,0.20649772821535095,0.3532694617097223
3.259467,0.01045883357471722,0.13076778609904605,0.20139030791560453,0.3426169275893678
3.261769,0.010468294526817756,0.1258625314073426,0.19634313894239305,0.33267396487655343
3.264071,0.010472776030444324,0.12126550457617764,0.19143489658160526,0.3231731771882272
3.266372,0.010472776030444324,0.11681288175075764,0.1863513776345338,0.3136370354157357
3.2686740000000003,0.010470286306207343,0.11238416027801268,0.18172298027798284,0.30457742686220285
3.270975,0.010468792471665154,0.1082920495221078,0.1769581460332452,0.2957189880270181
3.273277,0.01046630274742817,0.1040699751610324,0.1721041796608236,0.2866404575692842
3.275579,0.01045883357471722,0.10050220032943608,0.16735876526513446,0.2783197991692877
3.27788,0.010443397284447929,0.0966715106184144,0.1629853156704505,0.2701002235733128
3.280182,0.010418500042078102,0.0933173541263512,0.1583907785635225,0.2621266327319518
3.282484,0.010384141847607735,0.09016088173870447,0.15388836125336286,0.25443338483967504
3.284785,0.010340820645884236,0.08698698128139884,0.14958512188216186,0.2469129238094449
3.287087,0.01029003027144979,0.08421243259170523,0.14554828300431796,0.24005074586747305
3.289388,0.01023376250369398,0.08153398725755916,0.14116836012661788,0.232936109887871
3.29169,0.010169527618379824,0.07921854371716519,0.13744622239232865,0.2268342937278737
3.293992,0.01009234616703336,0.07702360282984116,0.13347013278586714,0.22058608178274167
3.296293,0.009998732535722806,0.07512593501641293,0.12968575194565335,0.21481041949778906
3.298595,0.009893168228074735,0.07369434358014781,0.12601340869610375,0.2096009205043263
3.300897,0.0097831224168001,0.0725261649681555,0.12242571607061158,0.2047350034555672
3.3031980000000005,0.00967158277098327,0.07210191595817364,0.11896549732605295,0.20073899605520984
3.3055,0.009556059566387269,0.07226822953720408,0.11594197621266104,0.1977662653162524
3.307801,0.00943306718908032,0.0732217939199685,0.1125131279934884,0.1951679891025372
3.310103,0.00930758508753639,0.07555615936456353,0.10956878011083256,0.19443252456293247
3.3124050000000005,0.009195049552024768,0.07964030300291007,0.10679074580720717,0.19562609836214204
3.314706,0.009106913314035578,0.0860792278245949,0.10463962406645406,0.19982576520508452
3.317008,0.009033715421468285,0.09397713104915166,0.1022519785231876,0.20526282499380755
3.31931,0.008953546301037441,0.1020607677017873,0.10062369887220086,0.2116380128750256
3.321611,0.008852961441863334,0.10847628911564453,0.09929368818480466,0.21662293874231253
3.323913,0.008738932071809525,0.1115974074191261,0.09830028821424852,0.21863662770518416
3.326214,0.008624902701755713,0.10828009884577028,0.0981165465655592,0.2150215481130852
3.3285160000000005,0.008516350725023264,0.09890130764505617,0.09816534516060407,0.20558300353068354
3.330818,0.008409292582833006,0.08516699286416443,0.09943610041116008,0.1930123858581575
3.3331190000000004,0.008300740606100556,0.0705443444755172,0.10071581866896924,0.17956090375058698
3.335421,0.008195176298452487,0.058570264730172274,0.10203636840426487,0.16880180943288964
3.3377230000000004,0.00810405239137892,0.05066090877412541,0.10333600445596987,0.16210096562147422
3.340024,0.008036829836980383,0.04598819432615615,0.1046072576513733,0.15863228181450986
3.3423260000000004,0.007993508635256883,0.04279686579919164,0.10523516610394036,0.15602554053838888
3.344627,0.007970105227429244,0.040897206206373785,0.10530786605166023,0.15417517748546328
3.3469290000000003,0.00796512577895528,0.03932270459890588,0.10464211379069104,0.1519299441685522
3.349231,0.007980562069224572,0.037976261731545585,0.10285598562307964,0.14881280942384978
3.351532,0.008018903822474107,0.0370505822602354,0.10067847280541448,0.14574795888812395
3.3538339999999995,0.0080776613144669,0.03615079592098983,0.09836950254803667,0.14259795978349338
3.356135,0.008148369482797211,0.03550894501269567,0.09617008015708607,0.13982739465257896
3.3584370000000003,0.008222065320211901,0.03463405591581992,0.09470363258150324,0.13755975381753505
3.360739,0.008287794040068245,0.03393045984644859,0.0941334857312342,0.13635173961775102
3.3630400000000003,0.008334600855723523,0.03331201234598207,0.09460006005324473,0.13624667325495032
3.365342,0.008352028925382402,0.03277572574533598,0.09594102552728367,0.13706878019800206
3.3676440000000003,0.008331613186639143,0.032045240654205234,0.09778939680081966,0.13816625064166405
