Wavelength,d_NH3_CH3OH_50_10K_I10m_Baselined,H2O_CH4_10_0.6_a_V3,H2O_CH3OH_CO_NH3_120K_NASA,all
2.85208,0.0013410958851309829,0.2343836379243153,0.054416128339090035,0.2901408621485363
2.854382,0.0013987513801926108,0.24411336609093395,0.05789871404079577,0.30341083151192233
2.8566830000000003,0.001453984375461734,0.2541304027329437,0.06165213521930363,0.3172365223277091
2.858985,0.001512608870440364,0.2641387183757005,0.06571708987112766,0.3313684171172685
2.861286,0.0015770473649210073,0.2748078919618527,0.06945936755059,0.3458443068773637
2.863588,0.0016477843588621648,0.28597028650575906,0.07342451521096281,0.361042586075584
2.8658900000000003,0.0017248198522638366,0.29651058310295003,0.07752677635959143,0.3757621793148053
2.868191,0.001811545344835529,0.3079239486253598,0.08160093651062697,0.3913364304808224
2.870493,0.0019094143364527469,0.31947394313606703,0.08570271315929713,0.4070860706318169
2.872795,0.0020097058278624696,0.33086695966021984,0.08995420029514407,0.4228308657832264
2.875096,0.002100791820060672,0.34234621717698593,0.0937885329667216,0.4382355419637681
2.877398,0.002172013313960331,0.3541975706618808,0.09776046362651344,0.4541300476023546
2.879699,0.0022345138086069696,0.36598157865254405,0.10171204528804824,0.4699281377491992
2.882001,0.00230234380279712,0.3776643261518805,0.10564618495107696,0.4856128549057546
2.884303,0.0023837397958253017,0.3885442572199807,0.10974214760024507,0.500670144616051
2.886604,0.0024728877881895,0.4011494926403032,0.11361281776871017,0.5172351981972029
2.888906,0.002561066780636696,0.4135023035822467,0.11779017641090647,0.5338535467737899
2.891208,0.002643431773581879,0.42506586409179203,0.12125289761431368,0.5489621934796876
2.893509,0.002714653267481538,0.4366236106018351,0.12553539274750472,0.5648736566168213
2.895811,0.002773277762460168,0.4481992836103429,0.1300417268615232,0.5810142882343262
2.898112,0.002831417757480297,0.4600457920956527,0.13420503500492298,0.5970822448580559
2.900414,0.00290942225079897,0.4711088641480663,0.1383455716502732,0.6123638580491385
2.902716,0.003009713742208693,0.4827906426474857,0.1427065557767414,0.6285069121664358
2.905017,0.003085780235693363,0.4935557472254212,0.147473066368475,0.6441145938295896
2.907319,0.003082388735983855,0.5050069037445942,0.1516189325133687,0.6597082249939468
2.909621,0.003013105241918201,0.5147245194122504,0.15625414361634854,0.6739917682705172
2.911922,0.002985973244242141,0.5234474566651037,0.1610657127042227,0.6874991426135686
2.9142240000000004,0.003105160234033407,0.5357707131095786,0.16589811529031248,0.7047739886339245
2.916525,0.003364852211789984,0.5455508292718814,0.17106869884743595,0.7199843803311072
2.918827,0.0036846221844006955,0.5556977119027695,0.17627658890136405,0.7356589229885342
2.921129,0.004006330156845411,0.5655626155578101,0.18138515646379946,0.7509541021784547
2.92343,0.0043827866246007475,0.5747458277712393,0.18665990751200065,0.7657885219078407
2.925732,0.0049007170802384,0.5841601464648737,0.19205675254974414,0.7811176160948563
2.928034,0.00563812601707704,0.5927367647302597,0.19806455203515752,0.7964394427824942
2.930335,0.0066565449298463045,0.6006462265527899,0.2030384286091296,0.8103412000917658
2.932637,0.00801314481364932,0.6102436862307378,0.2105985659615804,0.8288553970059676
2.9349380000000003,0.0097113171681956,0.617805277083064,0.21660345844724274,0.8441200526985023
2.93724,0.011698251498008518,0.6256939054073786,0.2225671684364325,0.8599593253418196
2.939542,0.013909509308607435,0.6333092757550985,0.2294335018483098,0.8766522869120158
2.941843,0.01619392661294002,0.6378514628660461,0.2358749287965816,0.8899203182755677
2.944145,0.01836061042735684,0.6463994956338807,0.2422480412507048,0.9070081473119422
2.946447,0.02025548976505455,0.6551907473808827,0.2483125272312628,0.9237587643772001
2.948748,0.02183786662951907,0.658198038623299,0.2540790457373426,0.9341149509901604
2.95105,0.02309272152203686,0.6668894833788498,0.2609172781516268,0.9508994830525136
2.953351,0.02403652744119696,0.6731976728385338,0.2667419366527268,0.9639761369324577
2.955653,0.024736145381272518,0.6798488882688366,0.2708456513012309,0.97543068495134
2.957955,0.02525988983641218,0.6843997963790371,0.2783927071548021,0.9880523933702514
2.960256,0.02563198580454101,0.6910592483086345,0.28322414074097496,0.9999153748541504
2.962558,0.02585049528582499,0.6950379619678454,0.2881132298222093,1.0090016870758796
2.96486,0.02590669728101112,0.7010200829554581,0.29514574671985244,1.0220725269563218
2.967161,0.02576764579292131,0.7053277720864912,0.3002208837851513,1.0313163016645641
2.969463,0.02539409632491698,0.7086025073059999,0.3061400197781589,1.040136623409076
2.971764,0.02476473087882408,0.7143099168171427,0.3110848263546209,1.0501594740505875
2.974066,0.023900382952858155,0.7197697468494914,0.31602478793149785,1.0596949177338473
2.976368,0.022829638044570773,0.7240449744833048,0.3210742464989961,1.0679488590268718
2.978669,0.021609667149065058,0.7289340635645392,0.3261188600669093,1.0766625907805136
2.980971,0.020331071758580718,0.7340193751289665,0.33112665163797644,1.0854770985255238
2.983273,0.019082030865564942,0.7378692117992162,0.3363587666898296,1.0933100093546106
2.985574,0.01792165346495486,0.7398450026299835,0.3414479542539249,1.0992146103488634
2.987876,0.016897420552683583,0.7459923381034452,0.34611078185453925,1.1090005405106682
2.990177,0.016040824626053676,0.7511096266651336,0.3512275859162692,1.1183780372074563
2.992479,0.015338299686227113,0.7539037379258093,0.3564626079678733,1.1257046455799098
2.994781,0.014764651735361841,0.7582618150525264,0.3610711715731355,1.1340976383610235
2.997082,0.014296140275491297,0.7614827707766416,0.3658730506618398,1.1416519617139729
2.999384,0.01390999380856594,0.7656659434183399,0.3700586458033305,1.1496345830302364
3.001686,0.013584409836453213,0.7702570650250962,0.3754676033400366,1.159309078201586
3.003987,0.013315027859526613,0.7734843192486719,0.3806284968979901,1.1674278440061885
3.006289,0.013109115377163656,0.7762290115135804,0.3853518869934171,1.1746900138841612
3.0085900000000003,0.01297151738894935,0.7801539456773976,0.3901775065800878,1.1833029696464348
3.010892,0.012891574895796672,0.7836312018795599,0.39431416722577006,1.1908369440011266
3.013194,0.012853783899033591,0.7861593226630186,0.3994624637848024,1.1984755703468546
3.015495,0.01284603189969757,0.7898749528447632,0.4036155974290737,1.2063365821735343
3.0177970000000003,0.0128591133985771,0.7926022031111658,0.4077556495744654,1.2132169660842085
3.020098,0.012885760896294658,0.7952359448855777,0.4124325276738763,1.2205542334557486
3.0224,0.012916284393680227,0.7963357597913753,0.4169829512841184,1.2262349954691738
3.024702,0.012937602391854274,0.7963599847893003,0.4209403469451552,1.2302379341263097
3.027003,0.012938571391771276,0.7973842177015715,0.4250019100972697,1.2353246991906124
3.029305,0.012920644893306738,0.8018726253171254,0.42870639677996897,1.2434996669904008
3.031607,0.012891574895796672,0.8035620766724187,0.4325349154520445,1.2489885670202598
3.0339080000000003,0.012859597898535602,0.8040339796319987,0.437001520569466,1.2538950981000003
3.03621,0.012835372900610549,0.8044356300975959,0.43999960631267065,1.2572706093108772
3.038511,0.012829074401150034,0.8033367841917158,0.4438416909835841,1.26000754957645
3.040813,0.012846516399656073,0.8048678040605791,0.4474303821762016,1.2651447026364369
3.043115,0.012884307396419156,0.8044254555984676,0.4506111244037612,1.2679208873986478
3.045416,0.012938571391771276,0.8029806767222174,0.4537424476355537,1.2696616957495424
3.047718,0.01300349438621042,0.8017611903266703,0.457008946355768,1.2717736310686485
3.05002,0.013073746880193077,0.8003125354507521,0.460164979085444,1.2735512614163889
3.052321,0.01314351487421723,0.7985659131003556,0.4634581253033758,1.2751675532779487
3.054623,0.013217643367867895,0.7964016517857312,0.4651868211553076,1.2748061163089066
3.056924,0.013301946360647084,0.7914612057088958,0.4685240568694631,1.273287208939006
3.059226,0.0133983618523888,0.7898894878435183,0.4709601226608065,1.2742479723567135
3.061528,0.013497199843923018,0.7873710570592296,0.4739456114050901,1.2748138683082428
3.063829,0.013587801336162721,0.7831055194245862,0.4758501807419578,1.272543501502707
3.066131,0.01366096082989638,0.7805284641453192,0.4778889565673304,1.2720783815425458
3.068433,0.013712802325456,0.7753157290918059,0.4797944949041151,1.2688230263213771
3.070734,0.013738965323215058,0.7710245129593619,0.4813487707709865,1.2661122490535637
3.073036,0.013738480823256556,0.7662764133660513,0.4828197126449959,1.2628346068343037
3.075337,0.013711348825580495,0.7617521527535682,0.4843352285151872,1.259798730094336
3.077639,0.013659991829979382,0.7569304091665655,0.4851128509485815,1.2557032519451263
3.079941,0.013593130835706234,0.7501764797450604,0.4857824298912298,1.2495520404719964
3.082242,0.01352094034188957,0.7453576431578087,0.48629115484765606,1.2451697383473543
3.084544,0.013452625847740922,0.7396439351472055,0.4877708177209184,1.2408673787158646
3.086846,0.013395454852637795,0.7342175356119934,0.4877582207219974,1.2353712111866286
3.089147,0.013356210355999206,0.7278255276594888,0.4877369027238233,1.2289186407393111
3.0914490000000003,0.013345066856953679,0.7216646261871892,0.4865527848252466,1.2215624778693894
3.09375,0.01337219885462974,0.7132609744069879,0.4864263303360778,1.2130595035976954
3.096052,0.013444873848404905,0.7079668433604466,0.4851191494480421,1.2065308666568937
3.098354,0.01354855683952413,0.7014246404208065,0.4850760289517353,1.200049226212066
3.100655,0.01366096082989638,0.6943044290306747,0.4836976265697998,1.1916630164303708
3.102957,0.013758829821513602,0.6871590236427009,0.4818574957274127,1.1827753491916269
3.105259,0.013817454316492232,0.6794055708068081,0.4809747368030237,1.1741977619263242
3.10756,0.01381212481694872,0.6718909764504563,0.4792402269515899,1.1649433282189952
3.109862,0.013742356822924564,0.6640764766197925,0.4769359451489587,1.154754778591676
3.112163,0.01363237533234482,0.6560618783062676,0.4755139377707581,1.1452081914093706
3.114465,0.013508343342968543,0.6480569699919129,0.4731282599750988,1.1346935733099803
3.116767,0.013382373353758262,0.6397681447018764,0.4702939352178675,1.1234444532735022
3.119068,0.013261248364132994,0.6311183669427567,0.4685952783633627,1.1129748936702524
3.12137,0.01315126687355325,0.6229002786466613,0.4653956406374216,1.1014471861576365
3.123672,0.013058727381479543,0.6141414883968791,0.4630022108424263,1.0902024266207848
3.125973,0.012991381887247893,0.605185022164028,0.4604300005627441,1.07860640461402
3.128275,0.0129497148908168,0.5963632469196404,0.4574377288190414,1.0667506906294986
3.130576,0.012920644893306738,0.5873811021889889,0.4543616385825181,1.0546633856648135
3.132878,0.01289109039583817,0.5781106799830293,0.4513717893386079,1.0423735597174757
3.13518,0.012857659898701594,0.5688848317732518,0.4484231225911704,1.0301656142631237
3.137481,0.01282326040164802,0.5595325290743054,0.44548123884315177,1.0178370283191052
3.139783,0.012790798904428448,0.5506080398387155,0.4425577660935563,1.0059566048367004
3.142085,0.012756883907333372,0.5412126166434627,0.4386110294316065,0.9925805299824026
3.144386,0.012717639410694788,0.531478043477259,0.4355538346934647,0.9797495175814186
3.146688,0.012668704914886177,0.5221422137769018,0.4326090439456952,0.9674199626374832
3.148989,0.012607657920115044,0.5133354580312277,0.429172485740047,0.9551156016913898
3.151291,0.012534013926422876,0.5031469084039086,0.4259442625165543,0.9416251848468856
3.153593,0.012448741933726686,0.4939825916888606,0.4220498518501227,0.92848118547271
3.155894,0.012358624941445488,0.4845382339977992,0.4190847121040961,0.9159815710433408
3.158196,0.012268023449205785,0.4749422278197268,0.4152561934320206,0.9024664447009532
3.160498,0.012177421956966084,0.4654537806324417,0.4112881387718968,0.8889193413613046
3.162799,0.01208100646522437,0.4562250254229132,0.40803859755023,0.8763446294383676
3.165101,0.011975385474271134,0.4462622527762556,0.40391937890305385,0.8621570171535806
3.167402,0.011858620984272374,0.43732904254141264,0.4007139271776107,0.8499015907032957
3.1697040000000003,0.011729259495352588,0.42782073085582895,0.3966833720228402,0.8362333623740218
3.172006,0.01159117700717978,0.41729206225764215,0.3925103738802705,0.8213936131450924
3.174307,0.011453579018965477,0.4084266820169894,0.3888175151965753,0.8086977762325301
3.176609,0.011327609029755194,0.3995467667775816,0.3842918010842167,0.7951661768915534
3.1789110000000003,0.011213267039548941,0.3903490195653972,0.3805664809033019,0.7821287675082479
3.181212,0.011101832049093692,0.3807835368847105,0.3763925137608151,0.7682778826946193
3.183514,0.010985552059053431,0.3718735826478756,0.3724089551020193,0.7552680898089483
3.1858150000000003,0.010865880569303668,0.3624607174541167,0.36799031548048944,0.7413169135039097
3.188117,0.010748631579346406,0.3535648137160784,0.36364531985265175,0.7279587651480766
3.190419,0.01063816558880816,0.3443181320080853,0.3598773636753889,0.7148336612722823
3.19272,0.010535936097564431,0.3356712612487165,0.35513895408124835,0.7013461514275293
3.1950220000000003,0.010443396605490728,0.32635965654628435,0.3505284524761521,0.6873315056279272
3.197323,0.01035860911275304,0.3178668567737189,0.3458593263760772,0.6740847922625492
3.199625,0.010279635619517363,0.3094205689971697,0.3412284757727239,0.660928680389411
3.201927,0.010203084626074194,0.3006995697441503,0.3367197191589129,0.6476223735291373
3.204228,0.01013380113200854,0.29176878200909995,0.3322477845419479,0.6341503676830564
3.20653,0.01008050613657342,0.2836054422083153,0.3277259464292574,0.621411894774146
3.208832,0.01004949813922935,0.2746630264742609,0.32237900488723953,0.6070915295007298
3.211133,0.01003544764043282,0.2670059891301099,0.318120250252015,0.5951616870225577
3.213435,0.010028664641013806,0.2590829613087417,0.3127781537095821,0.5818897796593376
3.215736,0.010025273141304296,0.2511463674885356,0.3079142586261899,0.5690858992560297
3.218038,0.010029149140972306,0.24322624666691844,0.3035741079979372,0.5568295038058281
3.22034,0.01004465313964434,0.2358167888015615,0.29805323097081743,0.5439146729120232
3.222641,0.0100708161374034,0.22820384095363405,0.2935580403558444,0.5318326974468819
3.224943,0.010097948135079459,0.2205908931057066,0.28824259131112906,0.5189314325519151
3.227245,0.010119750633212007,0.2131567257424661,0.2831572797467017,0.5064337561223798
3.229546,0.010137677131676548,0.20607866584872386,0.2784799171473324,0.4946962601277328
3.231848,0.010156088130099591,0.1990224084531141,0.27358889006626397,0.4827673866494777
3.234149,0.01017837512819064,0.1920334965517361,0.2684037715103855,0.4706156431903122
3.236451,0.010201146626240191,0.18509109664637416,0.2635156514290681,0.4588078947016825
3.238753,0.010219073124704728,0.1787388176904665,0.2585795658518591,0.4475374566670303
3.241054,0.010227794123957749,0.17232403823991227,0.2530165373283498,0.4355683696922198
3.2433560000000003,0.01022440262424824,0.16581768829720128,0.2483861712249549,0.4244282621464044
3.245658,0.010205507125866698,0.15972849281875975,0.2433778951539293,0.41331189509855576
3.247959,0.01017837512819064,0.1538263143242996,0.2382988820889625,0.4023035715414528
3.250261,0.010155603630141088,0.14808305181622786,0.2337586329778489,0.3919972884242178
3.252562,0.010148336130763573,0.14281847526715516,0.22830267894516826,0.381269490343087
3.254864,0.010153665630307084,0.13759847271426456,0.2231945958826914,0.370946734227263
3.257166,0.010164324629394105,0.13264446063859106,0.2188379722558497,0.3616467575238348
3.259467,0.01017643712835663,0.1272369566017605,0.21368434619727372,0.3510977399273909
3.261769,0.010185642627568155,0.12246414751056635,0.2086465156287796,0.3412963057669141
3.264071,0.010190003127194662,0.11799124389368446,0.20406653752106885,0.3322477845419479
3.266372,0.010190003127194662,0.1136588452647678,0.199410008419915,0.32325885681187744
3.2686740000000003,0.010187580627402158,0.1093497026338592,0.19459989283191634,0.3141371760931777
3.270975,0.010186127127526656,0.10536808197489736,0.18976991274561908,0.3053241218480431
3.273277,0.01018370462773415,0.10126000682676672,0.18493944815936333,0.2963831596138642
3.275579,0.01017643712835663,0.09778856462410647,0.18094135450181245,0.2889063562542756
3.27788,0.0101614176296431,0.09406130644335772,0.17637688039277374,0.2805996044657746
3.280182,0.010137192631718046,0.09079771472289444,0.17176153378809253,0.27269644114270497
3.282484,0.01010376213458147,0.08772646948595611,0.16727797117212356,0.2651082027926611
3.284785,0.010061610638191876,0.08463826675047025,0.16323869501810007,0.2579385724067622
3.287087,0.010012191642424768,0.08193863298170223,0.15872848490441352,0.2506793095285405
3.289388,0.009957443147114149,0.07933250770492495,0.15511459971395403,0.2444045505659931
3.29169,0.009894942652467507,0.07707958289789492,0.1512502280449494,0.23822475359531184
3.293992,0.00981984515889984,0.07494390708082217,0.14692897291507828,0.2316927251548003
3.296293,0.00972875916670164,0.07309747773897457,0.1434735192110486,0.2262997561167248
3.298595,0.00962604517549941,0.07170454035828397,0.13964257803918054,0.22097316357296395
3.300897,0.009518970684670672,0.07056790345564046,0.13616629083693535,0.21625316497724648
3.3031980000000005,0.00941044269396643,0.07015510949099754,0.13268031363552008,0.21224586582048405
3.3055,0.00929803870359418,0.07031693247713687,0.129275732427133,0.20889070360786405
3.307801,0.009178367213844412,0.07124474989766648,0.12581688722339385,0.20624000433490472
3.310103,0.009056273224302143,0.0735160857031195,0.1231598894509739,0.20573224837839554
3.3124050000000005,0.008946776233680898,0.07748995436274536,0.11980666523818795,0.2062433958346142
3.314706,0.008861019741026207,0.08375502332612278,0.11757651192920753,0.2101925549963565
3.317008,0.008789798247126548,0.09143967716790838,0.11496263465309417,0.2151921100681291
3.31931,0.008711793753807876,0.09930504949421486,0.11310554631215955,0.22112238956018224
3.321611,0.008613924762190658,0.10554734695954276,0.1113221019649171,0.2254833736866505
3.323913,0.008502974271693912,0.1085841926994275,0.10999457207862416,0.22708173904974555
3.326214,0.008392023781197164,0.10535645397589333,0.10877072518345043,0.22251920294054087
3.3285160000000005,0.00828640279024393,0.09623089725752554,0.10866461969253867,0.21318191974030812
3.330818,0.008182235299166198,0.0828674194021488,0.10802701774715126,0.19907667244846627
3.3331190000000004,0.008076614308212961,0.06863959362080617,0.10882789617855357,0.18554410410757266
3.335421,0.007973900317010734,0.05698882311873076,0.10953381261808964,0.1744965360538311
3.3377230000000004,0.007885236824605037,0.04929302577789963,0.1107382795149233,0.16791654211742796
3.340024,0.007819829330207393,0.04474647816732552,0.11134923396259316,0.16391554146012605
3.3423260000000004,0.007777677833817799,0.04164131793329212,0.11216706989254298,0.1615860656596529
3.344627,0.007754906335768247,0.03979295059161051,0.11225815588474117,0.15980601281211992
3.3469290000000003,0.007750061336183234,0.0382609617228301,0.11155708444479012,0.15756810750380346
3.349231,0.00776508083489677,0.03695087383504318,0.11026007805588273,0.15497603272582267
3.351532,0.007802387331701353,0.03605018841218968,0.10834194272017696,0.15219451846406798
3.3538339999999995,0.00785955832680448,0.03517469698717823,0.10615394090758608,0.1491881962215688
3.356135,0.007928357320911633,0.034550176540670344,0.1036355101232975,0.14611404398487948
3.3584370000000003,0.008000063314769792,0.033698910113583946,0.10180167778037093,0.14350065120872466
3.360739,0.008064017309291936,0.03301431167222192,0.10026920441163199,0.14134753339314587
3.3630400000000003,0.008109560305391034,0.03241256272376359,0.09958072997060198,0.1401028529997566
3.365342,0.008126517803938573,0.03189075626845793,0.09975514995566236,0.13977242402805887
3.3676440000000003,0.008106653305640029,0.031179994829336845,0.10090729085697793,0.1401939389919548
