Wavelength,H2O_40K,H2O_CH3OH_CO_NH3_120K_NASA,CH3OH,all
2.85208,0.1063702724457237,0.05429581371643804,0.011723629987689324,0.17238971614985107
2.854382,0.1104011011471114,0.05777069938513256,0.012714175443331378,0.18088597597557526
2.8566830000000003,0.11493131172047485,0.061515821710588385,0.013984626130216352,0.1904317595612796
2.858985,0.11915357819659868,0.06557178870562833,0.015440713447148447,0.20016608034937547
2.861286,0.12361852589221115,0.06930579217043029,0.016896317335356462,0.2098206353979979
2.863588,0.1282222176316349,0.07326217284830952,0.018321948642671452,0.21980633912261588
2.8658900000000003,0.1331870306279472,0.0773553638551037,0.020304006411403727,0.23084640089445466
2.868191,0.13785453495894964,0.08142051599590118,0.022287997895032316,0.2415630488498831
2.870493,0.14245242555368445,0.08551322357397127,0.024251201943525414,0.25221685107118114
2.872795,0.14740418597444652,0.0897553106277824,0.02619071798453856,0.26335021458676744
2.875096,0.1525270801635333,0.09358116555015976,0.0281988809043712,0.2743071266180642
2.877398,0.15757794347273205,0.09754431423017614,0.03053480849913079,0.285657066202039
2.879699,0.16281686055559827,0.1014871589037811,0.0324902776880386,0.29679429714741795
2.882001,0.16807028050018696,0.10541260014331914,0.03473048639543014,0.30821336703893626
2.884303,0.17312114380938567,0.10949950657670028,0.03668063786837306,0.31930128825445897
2.886604,0.17827207686446914,0.11336161865338368,0.038792254535159054,0.3304259500530119
2.888906,0.18327556415870794,0.11752974111241045,0.040780596877304384,0.3415859021484228
2.891208,0.18829838860190995,0.12098480620341764,0.0428375860982692,0.3521207809035968
2.893509,0.1934502885144416,0.12525783269556998,0.04487330445537447,0.3635814256653861
2.895811,0.19858575185035449,0.1297542032582477,0.046362748354268166,0.3747027034628704
2.898112,0.20415581760921625,0.1339083062842761,0.04845164387102233,0.3865157677645147
2.900414,0.2091626889045236,0.13803968816027268,0.050011668363631856,0.39721404542842814
2.902716,0.21375236121094898,0.14239103010572615,0.05199711013343268,0.40814050145010783
2.905017,0.21856682787407208,0.14714700189323546,0.05399560447878371,0.4197094342460912
2.907319,0.22339773111381392,0.15128370148519688,0.05651233441634961,0.4311937670153604
2.909621,0.22783318965725746,0.1559086640884802,0.058729338544985264,0.4424711922907229
2.911922,0.2329333626963125,0.16070959474732902,0.06158543544685606,0.4552283928904976
2.9142240000000004,0.2373499675195169,0.16553131284131334,0.06410651624293869,0.4669877966037689
2.916525,0.2418004123534069,0.17069046418470618,0.06721883036857243,0.4797097069066856
2.918827,0.2462904983426716,0.1758868395398533,0.06976456602958317,0.4919419039121081
2.921129,0.25058237855506305,0.1809841120065638,0.07290346873504139,0.5044699592966683
2.92343,0.2545527786659407,0.1862472005256341,0.07666599449456413,0.5174659736861389
2.925732,0.25828243127222594,0.1916321130831728,0.07978749376595541,0.5297020381213542
2.928034,0.2626458589357814,0.1976266292617777,0.08355195324037447,0.5438244414379336
2.930335,0.265280062053299,0.2025895085431937,0.08681461369919742,0.5546841842956901
2.932637,0.26977788290214905,0.21013293035375424,0.09059309260661484,0.5705039058625181
2.9349380000000003,0.27383916761315386,0.21612454596001465,0.09393068451767037,0.5838943980908389
2.93724,0.2775393310672701,0.22207507012472816,0.09764921826330172,0.5972636194553
2.939542,0.2810717447541303,0.22892622200240476,0.10088915757209284,0.6108871243286278
2.941843,0.2845543652824101,0.2353534068890621,0.10481266509673458,0.6247204372682068
2.944145,0.28759851595794844,0.24171242832562415,0.10813527071734358,0.6374462150009161
2.946447,0.2909433592998651,0.24776350566494654,0.11148349806032884,0.6501903630251405
2.948748,0.2942969043588153,0.2535172743389591,0.11489843856723732,0.6627126172650117
2.95105,0.2975112219452301,0.2603403873506389,0.11769700745094247,0.6755486167468114
2.953351,0.300683964661374,0.2661521674715412,0.12044336603244687,0.687279498165362
2.955653,0.30187851703857826,0.27024680876450763,0.1231278457372689,0.6952531715403547
2.957955,0.30614090809880085,0.27777717799951795,0.1254328338936873,0.7093509199920062
2.960256,0.3094422428555502,0.2825979292360541,0.12771075004155716,0.7197509221331616
2.962558,0.31100855192157284,0.2874762084907559,0.130256969131292,0.7287417295436207
2.96486,0.3148005668332645,0.29449317642079226,0.13249669440995948,0.7417904376640163
2.967161,0.3169552086564937,0.2995570923055412,0.13492302317612226,0.7514353241381572
2.969463,0.3202715297036897,0.3054631410276392,0.13655362826244755,0.7622882989937765
2.971764,0.3228337019413192,0.3103970145856103,0.13896303702326748,0.772193753550197
2.974066,0.3254509850534939,0.3153260538563406,0.1413796972149486,0.7821567361247831
2.976368,0.328935055867946,0.3203643480187132,0.1433612715549568,0.7926606754416161
2.978669,0.33105924168155804,0.32539780789384504,0.1455226813803231,0.8019797309557262
2.980971,0.3340332951921046,0.33039452718594664,0.1478943827006647,0.812322205078716
2.983273,0.33664042630107377,0.33561507397729784,0.1506122189874483,0.8228677192658199
2.985574,0.339224836260011,0.3406930092950451,0.15350360618617706,0.8334214517412328
2.987876,0.3418788599552159,0.345345527335601,0.15636066994549594,0.8435850572363128
2.990177,0.3445033944982518,0.3504510180906209,0.15923852113995046,0.8541929337288231
2.992479,0.3471279290412878,0.3556744654543165,0.1629488365972724,0.8657512310928768
2.994781,0.34976744987477026,0.3602728394777753,0.16584167408217335,0.8758819634347189
2.997082,0.3524345261455254,0.3650641015621426,0.16949059409153705,0.8869892217992049
2.999384,0.3551175555641752,0.3692404423094787,0.17320526040737574,0.8975632582810296
3.001686,0.357788982693447,0.3746374405851195,0.1768068044017795,0.9092332276803459
3.003987,0.3604560589642021,0.3797869233540305,0.17991573452634468,0.9201587168445774
3.006289,0.3623907407179745,0.3844998699850968,0.18360236197618676,0.930492972679258
3.0085900000000003,0.3649988386843917,0.389314820076944,0.18735763630484825,0.941671295066184
3.010892,0.3675890497880179,0.3934423345231479,0.19114143292823052,0.9521728172393964
3.013194,0.3698519796454413,0.39857924814523293,0.19492571298033687,0.9633569407710112
3.015495,0.3717170476629459,0.4027231991680557,0.19876171990592004,0.9732019667369216
3.0177970000000003,0.37377307002646254,0.4068540976153282,0.20176187856756694,0.9823890462093576
3.020098,0.3755980134598685,0.4115206350888825,0.2057346958220649,0.9928533443708158
3.0224,0.3769516138872954,0.4160609976654516,0.20888761796052147,1.0019002295132684
3.024702,0.37815631826770535,0.4200096434837455,0.2118418508933807,1.0100078126448315
3.027003,0.37934216892787614,0.4240622264777169,0.2144997420183783,1.0179041374239712
3.029305,0.38084321511614777,0.42775852250204055,0.21807179686061307,1.0266735344788014
3.031607,0.38238535274596624,0.431578576279729,0.22071325140899192,1.0346771804346873
3.0339080000000003,0.3826323848239717,0.436035305687032,0.222658568594694,1.0413262591056978
3.03621,0.3834687165166319,0.4390267626316456,0.2254890437741885,1.047984522922466
3.038511,0.3834556639410817,0.44286035241360816,0.2275170272717085,1.0538330436263983
3.040813,0.384280876773088,0.4464411089728764,0.22953050790750604,1.0602524936534703
3.043115,0.3844829499797539,0.4496148185464685,0.23152851882413295,1.0656262873503557
3.045416,0.3833836330611937,0.4527392183902042,0.2331915136349717,1.0693143650863697
3.047718,0.3834252079314646,0.4559984948479587,0.23479021242550774,1.0742139152049308
3.05002,0.383087291253332,0.4591475495566225,0.23631543004998345,1.078550270859938
3.052321,0.381614283931057,0.4624334145942014,0.2379092945532786,1.0819569930785369
3.054623,0.3809418345758603,0.4641582882817225,0.2386518410734671,1.08375196393105
3.056924,0.3794156500939365,0.4674881453331928,0.23940744016920576,1.086311235596335
3.059226,0.3788800110676547,0.4699188249578722,0.2402423215756937,1.0890411576012209
3.061528,0.37698497046925694,0.4728977127556596,0.2410607664055629,1.0909434496304793
3.063829,0.3756613426227231,0.4747980710700221,0.2418139483576812,1.0922733620504266
3.066131,0.3737329454423638,0.4768323391409552,0.2417670557714453,1.0923323403547642
3.068433,0.3712959812442713,0.4787336643127658,0.24186374151626155,1.0918933870732987
3.070734,0.3698031533443091,0.4802845036596178,0.2426377109035153,1.0927253679074422
3.073036,0.3671094884937295,0.481752193265928,0.2426633326258916,1.091525014385549
3.075337,0.3644810865209008,0.4832643583148534,0.24264351204820425,1.0903889568839584
3.077639,0.3629703717581476,0.4840402614170035,0.2418410203662297,1.0888516535413808
3.079941,0.3604347881003426,0.4847083599136834,0.24186664208860603,1.087009790102632
3.082242,0.3568598326857633,0.4852159600739685,0.2417999289246829,1.0838757216844146
3.084544,0.3542937930183411,0.4866923513973121,0.24105786583321845,1.0820440102488718
3.086846,0.35120371661401506,0.486679782250486,0.2402374872884529,1.0781209861529542
3.089147,0.3482059750959885,0.4866585113866264,0.2395007419129534,1.0743652283955685
3.0914490000000003,0.3453073364663986,0.4854770115849724,0.2385928627691292,1.0693772108205002
3.09375,0.3421761686205257,0.4853508366879872,0.23736833781103195,1.0648953431195447
3.096052,0.3388859527244301,0.4840465459904166,0.23629754318719245,1.059230041902039
3.098354,0.3355952533996105,0.4840035208339733,0.2355385600903852,1.0551373343239692
3.100655,0.33166691158772793,0.4826281661139628,0.2338949024285097,1.0481899801302004
3.102957,0.3287199300857299,0.480792103819903,0.23281782323125716,1.04232985713689
3.105259,0.32458661449483694,0.4799112966846273,0.23079612430715016,1.0352940354866145
3.10756,0.32108707396121433,0.4781806218524172,0.22927429068374305,1.0285419864973746
3.109862,0.31654816167081745,0.4758814348406877,0.22771184904751315,1.0201414455590183
3.112163,0.31306022342657275,0.4744625715355099,0.2255078974944277,1.0130306924565105
3.114465,0.3093706954043863,0.4720821684981349,0.22322127962952434,1.0046741435320454
3.116767,0.30507204718985764,0.4692541104622608,0.2210091097881295,0.995335267440248
3.119068,0.3015202963540343,0.4675592093556326,0.21867318219336992,0.9877526879030368
3.12137,0.29704761379883643,0.4643666460618015,0.21603559507478373,0.9774498549354216
3.123672,0.2927006227118997,0.4619785081648412,0.2134647211201208,0.9681438519968616
3.125973,0.2883473470515499,0.4594119850686949,0.2107391499737519,0.9584984820939968
3.128275,0.2840743205593976,0.4564263292687704,0.20792607822832426,0.9484267280564922
3.130576,0.27988154323544273,0.4533570402995799,0.204941389285848,0.9381799728208704
3.132878,0.2757873853712004,0.4503738016432757,0.20132582585844586,0.927487012872922
3.13518,0.270827890090853,0.4474316544285185,0.198642313011072,0.9169018575304436
3.137481,0.2666853893542025,0.4444962752158984,0.19508911188907632,0.9062707764591772
3.139783,0.2618056598133286,0.44157926629479344,0.1915508970575272,0.8949358231656492
3.142085,0.25712316919187955,0.4376412559084293,0.18806537595690287,0.8828298010572118
3.144386,0.2527882638230449,0.4345908206594779,0.18468040803088745,0.8720594925134102
3.146688,0.24778525995753015,0.4316525408745133,0.1812084229345374,0.860646223766581
3.148989,0.2436717649443246,0.4282235809346065,0.1771394033639473,0.8490347492428784
3.151291,0.23867891308201564,0.4250024953460545,0.17397874636590546,0.8376601547939755
3.153593,0.23379579954007304,0.4211166952618912,0.16989667421976512,0.8248091690217294
3.155894,0.22919500837299375,0.4181581114705151,0.16609837473466038,0.8134514945781693
3.158196,0.2241475290648636,0.4143380576928268,0.16192638484584101,0.8004119716035314
3.160498,0.21956849219036803,0.41037877644260295,0.15837801801108614,0.7883252866440571
3.162799,0.2149150072923639,0.4071364199901915,0.1542891778628087,0.7763406051453642
3.165101,0.21011504349096327,0.4030263089780545,0.15101008082736705,0.7641514332963847
3.167402,0.20484276982613545,0.3998279445395343,0.1469869869855646,0.7516577013512343
3.1697040000000003,0.2004121455699327,0.3958063009839041,0.14352563732114432,0.7397440838749811
3.172006,0.1956967817952462,0.39164252938339417,0.1397399069828657,0.7270792181615059
3.174307,0.19079481453306446,0.3879578356484484,0.13608035154157225,0.7148330017230852
3.176609,0.1857787580919996,0.3834421279368074,0.1329980099968315,0.7022188960256386
3.1789110000000003,0.18129350638997568,0.3797250444773483,0.12955213005158184,0.6905706809189058
3.181212,0.17657717575784102,0.37556030601939017,0.12644658392808525,0.6785840657053165
3.183514,0.17160414447321934,0.3715855550499959,0.12295864568384053,0.6661483452070558
3.1858150000000003,0.16677759209199425,0.3671766850863768,0.11997975788605315,0.6539340350644242
3.188117,0.1619268682745651,0.362841296288818,0.11708788725860038,0.6418560518219835
3.190419,0.15764900749517194,0.3590816711016397,0.11416024290556558,0.6308909215023772
3.19272,0.15333053870295602,0.3543537381801271,0.11135442259099923,0.6190386994740824
3.1950220000000003,0.14818250622021698,0.349753430441772,0.10857422399880916,0.6065101606607981
3.197323,0.14406079291870205,0.3450946278278029,0.10569782309052696,0.594853243837032
3.199625,0.13892532958278914,0.34047401608303635,0.10317287486465168,0.5825722205304772
3.201927,0.1350071397741123,0.3359752283767382,0.100734943809111,0.5717173119599614
3.204228,0.1305576617976704,0.3315131812534702,0.09809203897455994,0.5601628820257005
3.20653,0.1262464444363157,0.3270013409716219,0.09574789309149097,0.5489956784994285
3.208832,0.12191202249620507,0.32166622157266345,0.0937634181791383,0.5373416622480068
3.211133,0.11754472740285694,0.3174168830879911,0.09160974321335727,0.5265713537042053
3.213435,0.11327556834049728,0.3120865979762735,0.08878216860620726,0.5141443349229781
3.215736,0.10903396471541024,0.307233457015224,0.08673581481717221,0.5030032365478064
3.218038,0.1049272377043418,0.30290290250490604,0.08475327361971588,0.4925834138289637
3.22034,0.10081180897623987,0.2973942321940026,0.08276251413395012,0.4809685553041926
3.222641,0.09735045931181964,0.2929089804919786,0.08112030675824684,0.471379746562045
3.224943,0.09323986487095856,0.2876052839600856,0.07907201925431548,0.4599171680853595
3.227245,0.0891892155918835,0.2825312160721309,0.07710688149092604,0.4488273131549405
3.229546,0.0858313196744166,0.27786419516985256,0.07594906969675194,0.43964458454102107
3.231848,0.08216983051822678,0.2729839822002545,0.07403904280790774,0.42919285552638897
3.234149,0.07859149110257893,0.2678103279951392,0.07218944450957368,0.4185912636072918
3.236451,0.07526501805217728,0.2629330155978856,0.07097458812595803,0.4091726217760209
3.238753,0.07190325470491771,0.25800784375694785,0.06903700579984122,0.3989481042617068
3.241054,0.06900848350512044,0.25245711514704944,0.06781054712684763,0.3892761457790176
3.2433560000000003,0.06546785152995087,0.24783698683100686,0.0659952722679233,0.37930011062888097
3.245658,0.06287135585291162,0.24283978411018114,0.06484277818971411,0.3705539181528069
3.247959,0.059789014308170914,0.2377720007956396,0.06292743358490502,0.3604884486887156
3.250261,0.056993829425534326,0.2332417902222761,0.06171499434490978,0.35195061399272026
3.252562,0.05437461259846325,0.2277978993603996,0.06049482024532923,0.34266733220419204
3.254864,0.051952634690817234,0.22270111032241316,0.05865875795126944,0.3333125029644998
3.257166,0.04953984192892875,0.2183541192354764,0.05750142958581943,0.3253953907502246
3.259467,0.047108195446801115,0.2132118878974264,0.0562653023383442,0.3165853856825717
3.261769,0.044720540978564864,0.20818519602443172,0.055072683676036266,0.3079784206790329
3.264071,0.04241120196362972,0.20361534429569364,0.05352039404301205,0.2995469403023354
3.266372,0.04051761165140429,0.1989691108285508,0.05264297090880496,0.29212969338876005
3.2686740000000003,0.038750679664888085,0.1941696304558742,0.0508977932148724,0.28381810333563473
3.270975,0.03665791671834125,0.1893503295055103,0.049698406550427336,0.2757066527742789
3.273277,0.0350785550767685,0.1845305451264223,0.04848355016681168,0.2680926503700025
3.275579,0.0333623831062808,0.1805412912953056,0.047310268653466984,0.2612139430550533
3.27788,0.03178205460725988,0.17598690928573807,0.046158741432705964,0.2539277053257039
3.280182,0.03010407350597458,0.1713817672601421,0.04495597076719233,0.246441811533309
3.282484,0.028876647975532826,0.16690811784749615,0.04437053858233018,0.24015530440535915
3.284785,0.02726683032434295,0.1628777725748325,0.043123775902925175,0.23326837880210066
3.287087,0.026187333983469997,0.15837753458236206,0.041962096678958435,0.2265269652447905
3.289388,0.02504064104994976,0.15477163972944158,0.0408386083241941,0.22065088910358546
3.29169,0.023932138985631936,0.15091581222617126,0.040227070988231584,0.21507502220003474
3.293992,0.022804299772350867,0.14660411143609242,0.03903058489613101,0.2084389961045743
3.296293,0.021694830850584875,0.1431562977759464,0.038172015482163084,0.2030231441086944
3.298595,0.02060131507671356,0.13933382685463766,0.03724044833085891,0.1971755902622101
3.300897,0.019519401592220192,0.13586522575935614,0.03661682527679437,0.1920014526283707
3.3031980000000005,0.018881275676433214,0.13238695608959306,0.03555569922743648,0.1868239309934628
3.3055,0.017782442186597008,0.1289899024454756,0.03501377562774163,0.18178612025981425
3.307801,0.01705729910047545,0.12553870478426105,0.03446266688228925,0.17705867076702575
3.310103,0.016071587932074204,0.1228875816614006,0.03417115936166838,0.1731303289551432
3.3124050000000005,0.01557559006116706,0.11954177146203572,0.034011144453997555,0.16912850597720036
3.314706,0.014932629858139274,0.11731654904509073,0.034000992450791856,0.16625017135402184
3.317008,0.014230691350773603,0.11470845107867347,0.034553068053692404,0.1634922104831395
3.31931,0.013574195143471551,0.11285546877927086,0.03506501907249423,0.16149468299523664
3.321611,0.013099951565148048,0.11107596764592854,0.035788711872443535,0.15996463108352013
3.323913,0.01220319128197772,0.10975137294194648,0.037872773101956914,0.1598273373258811
3.326214,0.011781158005854971,0.1085302319849178,0.040132318958311694,0.16044370894908447
3.3285160000000005,0.01132673500521879,0.10842436109434404,0.0428250169514431,0.16257611305100594
3.330818,0.01071326395435995,0.10778816889345337,0.04685536222410673,0.16535679507192008
3.3331190000000004,0.010427557578428054,0.10858727657435936,0.0509920618160682,0.1700068959688556
3.335421,0.009762359654092542,0.10929163222534544,0.05565714900345025,0.17471114088288822
3.3377230000000004,0.009335492090728984,0.11049343603341087,0.060852557501149186,0.18068148562528907
3.340024,0.0090468851424526,0.11110303965447707,0.06599478883919922,0.1861447136361289
3.3423260000000004,0.008631619868466988,0.11191906734072588,0.0714879894309321,0.19203867664012494
3.344627,0.008276299756267421,0.11200995194085313,0.07571218962195224,0.1959984413190728
3.3469290000000003,0.007789003602393733,0.11131043057710784,0.07940413478775915,0.19850356896726076
3.349231,0.007468973787052083,0.1100162918827429,0.08218481680867329,0.19967008247846826
3.351532,0.007219041136702186,0.10810239756410606,0.08444194552140767,0.1997633842222159
3.3538339999999995,0.006805709577612895,0.10591923344615607,0.08533870580457802,0.19806364882834696
3.356135,0.006366756296147309,0.10340637093838284,0.08596184542991847,0.1957349726644486
3.3584370000000003,0.006375458013180769,0.10157659321773607,0.08591882027347525,0.19387087150439208
3.360739,0.005802111546420653,0.10004750816346776,0.08587676197448021,0.19172638168436865
3.3630400000000003,0.00560583948444375,0.0993605559465486,0.08649796788492434,0.19146436331591668
3.365342,0.005319649679787775,0.09953459028721776,0.0883528838992233,0.19320712386622885
3.3676440000000003,0.0050460290219579065,0.1006841837930825,0.09083238982503496,0.19656260264007536
3.3699449999999995,0.0048884312579074865,0.10193191332993566,0.09444892010988523,0.2012692646977284
