Wavelength,H2O_CH4_10_0.6_a_V3,H2O_40K,H2O_CH3OH_CO_NH3_100K_NASA,all
2.85208,0.23863762980109024,0.05745521958662905,0.07259356264450896,0.36868641203222813
2.854382,0.24854394958029144,0.059632445825026525,0.07761627691558888,0.3857926723209068
2.8566830000000003,0.2587427923964943,0.062079409974705436,0.08276428773202868,0.4035864901032284
2.858985,0.26893275592995497,0.06436004009777617,0.08783485147121843,0.4211276474989497
2.861286,0.2797955717778681,0.06677175292313466,0.09371342993993376,0.4402807546409365
2.863588,0.291160560394192,0.06925840745278915,0.09862564647022386,0.459044614317205
2.8658900000000003,0.3018921601749171,0.07194011931034998,0.10350727880440247,0.4773395582896696
2.868191,0.31351267481681744,0.0744612418015622,0.1083894044320668,0.4963633210504465
2.870493,0.3252722982216764,0.07694476288016601,0.1135211365634795,0.5157381976653219
2.872795,0.3368720945371787,0.07961942447286274,0.11781525635622656,0.5343067753662679
2.875096,0.34855969709312995,0.08238652287155525,0.1227516442673144,0.5536978642319996
2.877398,0.36062614904607504,0.08511471425303485,0.12707684154965862,0.5728177048487685
2.879699,0.372624033204512,0.08794448167274144,0.13152832196433406,0.5920968368415874
2.882001,0.3845188190244442,0.09078208272007478,0.1357775520498852,0.6110784537944042
2.884303,0.3955962175386232,0.09351027410155438,0.1397525109574046,0.6288590025975822
2.886604,0.4084302341552688,0.0962925175136586,0.1438808841389669,0.6486036358078944
2.888906,0.4210072448658809,0.0989951190448908,0.1481587252466869,0.6681610891574588
2.891208,0.4327806804883388,0.10170816541295867,0.15208534139261068,0.6865741872939081
2.893509,0.4445481965889683,0.10449093106690467,0.15595078914631158,0.7049899168021846
2.895811,0.4563339645485678,0.1072648186095404,0.15983350217201084,0.7234322853301189
2.898112,0.4683954835666561,0.110273453860058,0.16444480967604294,0.7431137471027569
2.900414,0.4796593470184178,0.1129778832377364,0.16835810689785366,0.7609953371540079
2.902716,0.4915531462513787,0.11545696526068505,0.17296102841262942,0.7799711399246931
2.905017,0.5025136342094542,0.11805746851184848,0.1770252734410548,0.7975963761623575
2.907319,0.5141726257432367,0.1206668498743222,0.18139289396316646,0.8162323695807254
2.909621,0.5240666131852962,0.12306263432350628,0.18580293772504575,0.8329321852338483
2.911922,0.5329478691012776,0.12581746003891686,0.19053312895912408,0.8492984580993186
2.9142240000000004,0.545494788909264,0.12820306077218616,0.19536247218382174,0.8690603218652718
2.916525,0.5554524112109748,0.1306069399699179,0.200609634990881,0.8866689861717737
2.918827,0.5657834566813369,0.13303223108316276,0.20566145357761534,0.904477141342115
2.921129,0.5758274053430397,0.1353504626188419,0.21055393836847874,0.9217318063303604
2.92343,0.5851772900704064,0.1374950487421279,0.2156659387604647,0.938338277572999
2.925732,0.5947624757904373,0.1395095966468097,0.22113902998396026,0.9554111024212072
2.928034,0.6034947570737466,0.14186647407878086,0.22700280964810546,0.9723640408006328
2.930335,0.6115477732272901,0.14328932197672134,0.2315603481621997,0.9863974433662112
2.932637,0.6213194238849037,0.14571879102470053,0.2386696938776587,1.005707908787263
2.9349380000000003,0.6290182553157371,0.1479124678811142,0.24431839758205234,1.0212491207789036
2.93724,0.6370500598493966,0.14991108740962153,0.2500771057337501,1.0370382529927682
2.939542,0.6448036468571392,0.15181909797857934,0.25617322662964537,1.052795971465364
2.941843,0.6494282732852843,0.15370021309268533,0.26228365303662504,1.0654121394145948
2.944145,0.6581314502529393,0.15534449153154226,0.2680916905368897,1.0815676323213712
2.946447,0.6670822605504,0.15715118718319396,0.2737512466979681,1.0979846944315619
2.948748,0.6701441332159465,0.15896258301142174,0.280008674563677,1.1091153907910452
2.95105,0.6789933250553594,0.16069877601443264,0.2858344706294257,1.1255265716992178
2.953351,0.6854160062387673,0.16241251261824682,0.2915818330309532,1.1394103518879677
2.955653,0.6921879392100289,0.16305774241377094,0.2955271943293324,1.1507728759531322
2.957955,0.6968214449209159,0.16536004557327572,0.30212450140666713,1.1643059919008591
2.960256,0.7036017638814339,0.16714324034204714,0.3073134555824174,1.1780584598058987
2.962558,0.7076526899857463,0.16798927212573725,0.3109307767128269,1.1865727388243104
2.96486,0.7137433846532992,0.17003750462921408,0.3174131464080008,1.2011940356905142
2.967161,0.7181292570343807,0.17120132057362972,0.32284529427218583,1.2121758718801965
2.969463,0.7214634277040163,0.17299261009094882,0.3277160741496798,1.2221721119446451
2.971764,0.7272744249651949,0.1743765509716764,0.3329311728801705,1.234582148817042
2.974066,0.7328333492551967,0.1757902596373857,0.3382133595247122,1.2468369684172946
2.976368,0.7371861709727385,0.17767215811425435,0.3424014212180405,1.2572597503050331
2.978669,0.7421639955366225,0.17881952344065374,0.3468381028281458,1.267821621805422
2.980971,0.7473416039622024,0.18042593934598133,0.3522885025513006,1.2800560458594843
2.983273,0.7512613139993268,0.1818341644723519,0.3567089054763789,1.2898043839480575
2.985574,0.7532729648338843,0.18323011691544053,0.3616822903988919,1.2981853721482168
2.987876,0.7595318725800503,0.1846636707711376,0.36639521636097183,1.3105907597121598
2.990177,0.7647420383756843,0.18608129625066025,0.3710716386051122,1.3218949732314569
2.992479,0.7675868619075364,0.1874989217301829,0.375614871608122,1.3307006552458414
2.994781,0.7720240368111274,0.1889246419582532,0.3802444309711239,1.3411931097405043
2.997082,0.7753034519038537,0.1903652460788144,0.3848725104536688,1.3505412084363368
2.999384,0.7795625478591183,0.19181446718976494,0.3885120297909333,1.3598890448398164
3.001686,0.7842369969293159,0.19325742139861413,0.3935199452574431,1.371014363585373
3.003987,0.7875228248373559,0.19469802551917528,0.3986250395406297,1.3808458898971607
3.006289,0.7903173324336699,0.19574303144458507,0.40248506106598825,1.3885454249442428
3.0085900000000003,0.7943135029610731,0.1971517788127974,0.4067949662502767,1.3982602480241468
3.010892,0.797853870307718,0.19855086470693672,0.4107156628743725,1.4071203978890272
3.013194,0.8004278757159381,0.19977317173763215,0.4148573549800479,1.415058402433618
3.015495,0.8042109434575321,0.2007805762504335,0.4189181469540736,1.4239096666620392
3.0177970000000003,0.8069876924883619,0.2018911235269872,0.4222932609830197,1.431172076998369
3.020098,0.8096692358764576,0.20287685500335448,0.4262322094660852,1.4387783003458972
3.0224,0.8107890120889258,0.20360799358185205,0.42926645769643396,1.4436634633672119
3.024702,0.8108136767632093,0.2042587069167149,0.4323455956339788,1.4474179793139033
3.027003,0.8118564991919132,0.204899236535663,0.4359698228731877,1.4527255586007637
3.029305,0.8164263700431491,0.20571001699503266,0.4383854810725078,1.4605218681106895
3.031607,0.8181464844276762,0.2065429927326781,0.4416239528059236,1.4663134299662781
3.0339080000000003,0.8186269522827176,0.20667642552325394,0.4446961846346689,1.4699995624406406
3.03621,0.819035892582337,0.20712816471639708,0.4467305269695672,1.4728945842683012
3.038511,0.8179171029568404,0.20712111445153303,0.4490943893528922,1.4741326067612657
3.040813,0.8194759103715538,0.2075668478634956,0.4518829774273781,1.4789257356624277
3.043115,0.8190255334191381,0.2076759964084285,0.4538270470543989,1.4805285768819654
3.045416,0.8175545322448736,0.2070822074343201,0.4557967679426745,1.4804335076218682
3.047718,0.8163129125414452,0.2071046638335168,0.4566950553800773,1.4801126317550393
3.05002,0.8148379650192955,0.2069221403098133,0.4589351010984994,1.4806952064276082
3.052321,0.8130596420034595,0.20612650486385534,0.4598782782430982,1.4790644251104133
3.054623,0.8108561000029767,0.20576328566289465,0.4615717547793993,1.4781911404452708
3.056924,0.8058259863296118,0.2049389269156386,0.4616709067700187,1.472435820015269
3.059226,0.8042257422621022,0.20464960493529025,0.4627013968615809,1.471576744058973
3.061528,0.8016616027235955,0.2036260109253936,0.46402391669665904,1.4693115303456483
3.063829,0.7973186468757674,0.20291106184399127,0.4646809836195698,1.4649106923393285
3.066131,0.794694818825495,0.20186945049055316,0.4650312219943947,1.4615954913104428
3.068433,0.7893874742131841,0.20055313992833654,0.4652176869319776,1.4551583010734983
3.070734,0.7850183738106155,0.1997467985246221,0.4652314991495762,1.4499966714848136
3.073036,0.780184097651061,0.19829183275341186,0.4652324857365475,1.4437084161410203
3.075337,0.7755777230818856,0.19687211830652207,0.4652324857365475,1.4376823271249553
3.077639,0.7706684663125095,0.19605611542873452,0.4649744932435428,1.4316990749847869
3.079941,0.7637919551222861,0.19468653619865608,0.4639124323688978,1.4223909236898402
3.082242,0.7588856581138241,0.19275554698865974,0.4639489360868373,1.415590141189321
3.084544,0.7530682480373317,0.191369517140565,0.4633633967193485,1.4078011618972452
3.086846,0.7475433609978409,0.18970043221422334,0.4625095056956557,1.39975329890772
3.089147,0.7410353400414122,0.18808122138377206,0.4614301795490123,1.3905467409741967
3.0914490000000003,0.7347626200776476,0.18651554034210366,0.459829442188017,1.3811076026077682
3.09375,0.7262064445687219,0.18482426013748612,0.458905996782845,1.369936701489053
3.096052,0.7208162266508187,0.1830470711498952,0.4570808108858703,1.3609441086865843
3.098354,0.7141552847138327,0.1812696210413834,0.4559921121629992,1.3514170179182154
3.100655,0.7069058436484437,0.17914775243821499,0.4540366967858081,1.3400902928724667
3.102957,0.6996307513218001,0.1775559593044574,0.4527585733644402,1.3299452839906976
3.105259,0.6917365756706418,0.1753233754308308,0.4504751178192792,1.3175350689207517
3.10756,0.6840855937079184,0.17343312108449366,0.448364808287588,1.30588352308
3.109862,0.6761292630775662,0.17098145675823864,0.4466121365330067,1.2937228563688117
3.112163,0.6679692022376326,0.1690974693140029,0.4449201398771626,1.2819868114287982
3.114465,0.6598190072674124,0.16710459444575518,0.4429321671299173,1.269855768843085
3.116767,0.6513797423145902,0.16478270721718352,0.4400429471843551,1.2562053967161286
3.119068,0.6425729737149448,0.16286425181139005,0.4373160207955778,1.2427532463219126
3.12137,0.6342057296110303,0.16044836105129726,0.435444958604436,1.2300990492667634
3.123672,0.6252879699771094,0.15810036173063638,0.43324092331046776,1.2166292550182136
3.125973,0.6161689466010356,0.15574896783800393,0.42982042628084016,1.2017383407198796
3.128275,0.6071870588139778,0.15344092001823956,0.4279518305571266,1.188579809389344
3.130576,0.5980418908831635,0.15117621827134325,0.4250339995893956,1.1742521087439024
3.132878,0.5886032133283764,0.1489647851923089,0.42222567977548303,1.1597936782961684
3.13518,0.5792099187742707,0.1462859456648779,0.4194247593638555,1.1449206238030043
3.137481,0.5696878746204055,0.1440484004937544,0.41663271823497,1.13036899334913
3.139783,0.5606014086143858,0.14141264591827055,0.4139319364009332,1.1159459909335894
3.142085,0.5510354613402961,0.13888342867851067,0.41072158239620055,1.1006404724150074
3.144386,0.5411242086262382,0.13654195738087213,0.4071496442664726,1.084815810273583
3.146688,0.5316189364508859,0.13383961697056082,0.4044700740523195,1.0699286274737665
3.148989,0.5226523407618836,0.13161773905469082,0.4019172802639833,1.0561873600805578
3.151291,0.5122788720517542,0.12892088218371828,0.3979477475848064,1.0391475018202792
3.153593,0.5029482257703284,0.12628329976178818,0.3954038330792123,1.024635358611329
3.155894,0.4933324558541862,0.12379821195765905,0.39166910809921374,1.0087997759110592
3.158196,0.4835622850770295,0.12107184842262568,0.3888746005028999,0.993508734002555
3.160498,0.4739016254536914,0.11859851105993667,0.3853579112435668,0.9778580477571948
3.162799,0.4645053711386717,0.1160849610754303,0.3821796213154026,0.9627699535295048
3.165101,0.4543617771928639,0.11349229145189367,0.3791088693671143,0.9469629380118718
3.167402,0.4452664319041021,0.11064450668864552,0.3749158747389293,0.9308268133316768
3.1697040000000003,0.4355855472478516,0.10825133344867036,0.3718155251815008,0.9156524058780228
3.172006,0.42486578651078255,0.1057043599862898,0.3683466853902777,0.8989168318873499
3.174307,0.4158395023100145,0.10305659384844493,0.3643613673195593,0.8832574634780187
3.176609,0.4067984193046764,0.10034720317326958,0.3612491787184747,0.8683948011964207
3.1789110000000003,0.3974337357727396,0.0979245232692336,0.357727556524285,0.8530858155662582
3.181212,0.38769464248518,0.09537702756501126,0.35419557516689626,0.8372672452170875
3.183514,0.3786229752837305,0.09269087665179528,0.3502378815313753,0.8215517334669011
3.1858150000000003,0.3690392694441567,0.09008384537760958,0.3463576349731044,0.8054807497948706
3.188117,0.3599819077537915,0.08746375805737927,0.3430279039448399,0.7904735697560107
3.190419,0.3505674015798021,0.08515309902840598,0.3383485219397855,0.7740690225479936
3.19272,0.3417635927410707,0.08282050584207776,0.3345511486871069,0.7591352472702554
3.1950220000000003,0.3322829852400017,0.08003982915549886,0.3311222656682229,0.7434450800637235
3.197323,0.3236360437297129,0.07781351218397367,0.32759620383266225,0.7290457597463489
3.199625,0.3150364583940485,0.075039624641338,0.3231032867651907,0.7131793698005772
3.201927,0.3061571756520097,0.07292323957750832,0.3187272802538226,0.6978076954833407
3.204228,0.2970642968306764,0.07051988262161839,0.31437840488416624,0.6819625843364611
3.20653,0.2887527948906425,0.06819120624910355,0.3104769467060116,0.6674209478457576
3.208832,0.2796480770256531,0.0658499960723859,0.306360905861591,0.65185897895963
3.211133,0.2718520667781431,0.06349102967304758,0.3018778546638328,0.6372209511150235
3.213435,0.26378523840700097,0.06118507082065035,0.2973267289650522,0.6222970381927035
3.215736,0.25570459781826,0.05889399586074395,0.2932171009359453,0.6078156946149492
3.218038,0.24764072920803185,0.05667577363776642,0.2881638024687539,0.5924803053145522
3.22034,0.2400967919316986,0.05445285123821285,0.2839476230467425,0.578497266216654
3.222641,0.2323456713913845,0.05258322544462615,0.27934914117333776,0.5642780380093484
3.224943,0.2245945508510703,0.050362914254281486,0.2741049381271926,0.5490624032325444
3.227245,0.217025455606968,0.04817498205812743,0.2694655128944773,0.5346659505595728
3.229546,0.2098189310748322,0.04636123614161161,0.2643811369376889,0.5205613041541327
3.231848,0.20263460474955156,0.04438350628677562,0.25984974297833496,0.5068678540146622
3.234149,0.1955188462187788,0.04245068923033304,0.2549602179483857,0.4929297533974976
3.236451,0.18845044386263032,0.04065391617367521,0.2499616750581036,0.4790660350944092
3.238753,0.1819828729720264,0.038838081289792235,0.2447889995673804,0.4656099538291991
3.241054,0.17545166722177127,0.037274489215490966,0.23957192766294694,0.4522980841002092
3.2433560000000003,0.1688272290027247,0.03536203959087796,0.2350124159749101,0.4392016845685127
3.245658,0.16262751647483897,0.033959559124767044,0.2297060579495706,0.42629313354917664
3.247959,0.15661821523242145,0.032294652133159664,0.22436072973886328,0.4132735971044444
3.250261,0.1507707142533033,0.030784850968562125,0.2190736101594649,0.4006291753813303
3.252562,0.1454105872380259,0.029370097819169282,0.2140987453564948,0.38887943041369
3.254864,0.14009584322343008,0.02806188200550037,0.20965318446364745,0.3778109096925779
3.257166,0.1350519173324664,0.026758627489328408,0.20456880850685896,0.3663793533286538
3.259467,0.12954626873891673,0.025445189257241662,0.1995090972243539,0.3545005552205123
3.261769,0.1246868346115932,0.02415551302895608,0.1945090744536148,0.34335142209416397
3.264071,0.12013274915189867,0.022908138389855,0.1896466805653772,0.33268756810713085
3.266372,0.1157217188030481,0.021885327742721047,0.18461064737018426,0.3222176939159534
3.2686740000000003,0.11133436654150962,0.0209309307768608,0.18002548442089256,0.3122907817392629
3.270975,0.10728048067628328,0.01980053831031933,0.17530515905652766,0.3023861780431303
3.273277,0.10309784521129736,0.018947456261765173,0.17049653415822802,0.2925418356312905
3.275579,0.09956339738648026,0.018020476992598584,0.16579544723980416,0.283379321618883
3.27788,0.09576849060123006,0.01716687270220264,0.16146285055517492,0.27439821385860763
3.280182,0.09244566568176488,0.016260521985786515,0.15691123156290876,0.26561741923046017
3.282484,0.08931867827611026,0.015597535967641732,0.15245087186549128,0.25736708610924325
3.284785,0.08617442559845721,0.014728003301071374,0.1481878295623414,0.24909025846187
3.287087,0.08342579429631054,0.014144920284719543,0.14418869927402425,0.24175941385505434
3.289388,0.08077236863689798,0.013525541460363723,0.13984968977408133,0.23414759987134304
3.29169,0.07847855392853798,0.012926791188758372,0.13616232096870692,0.2275676660860033
3.293992,0.07630411624370982,0.012317596080317341,0.1322233724856414,0.22084508480966852
3.296293,0.07442417476982596,0.011718323566870205,0.12847434199455834,0.21461684033125453
3.298595,0.0730059559985281,0.011127668043812504,0.12483630253775085,0.20896992658009145
3.300897,0.07184868948114906,0.010543279422856213,0.12128212297350699,0.2036740918775123
3.3031980000000005,0.07142840343135923,0.010198599807278776,0.1178542265415944,0.1994812297802324
3.3055,0.0715931634555726,0.009605071954091262,0.11485894849661332,0.1960571839062772
3.307801,0.0725378204806284,0.009213390572753263,0.11146212955429784,0.19321334060767956
3.310103,0.07485038034144381,0.008680965015054479,0.10854528517353812,0.19207663053003646
3.3124050000000005,0.07889637351089948,0.00841305495021929,0.10579320081699177,0.19310262927811056
3.314706,0.08527515157408297,0.008065764125432933,0.10366217295890247,0.1970030886584184
3.317008,0.09309927955027608,0.007686616548297751,0.10129683069512052,0.20208272679369432
3.31931,0.10110740599662367,0.007332014337726418,0.09968376099698346,0.2081231813313336
3.321611,0.10746299926598074,0.007075854714331369,0.09836617409676206,0.21290502807707415
3.323913,0.11055496283415288,0.006591475406076712,0.09738205359285276,0.21452849183308234
3.326214,0.10726864163262724,0.006363516842137997,0.09720002829664096,0.2108321867714062
3.3285160000000005,0.09797745883005504,0.006118063176499518,0.09724837105823653,0.20134389306479106
3.330818,0.08437143790833768,0.005786700727887573,0.09850725603366334,0.18866539466988855
3.3331190000000004,0.06988538140818716,0.005632378263640402,0.0997750202918322,0.17529277996365975
3.335421,0.058023152958309086,0.005273075876493011,0.10108323461582593,0.164379463450628
3.3377230000000004,0.050187679231945566,0.005042506103345379,0.10237073061342153,0.15760091594871245
3.340024,0.04555861316242938,0.0048866169135728535,0.10363010888233402,0.15407533895833625
3.3423260000000004,0.04239709521277793,0.004662314042526629,0.1042521519677624,0.15131156122306694
3.344627,0.04051518056495139,0.004470390165671009,0.10432417281667004,0.14930974354729246
3.3469290000000003,0.03895538656326658,0.004207180277411876,0.10366463942633083,0.1468272062670093
3.349231,0.037621520978018096,0.004034318227781373,0.1018951956932368,0.14355103489903626
3.351532,0.03670448838815976,0.00389931871168021,0.09973802328040704,0.14034183038024697
3.3538339999999995,0.03581310705955621,0.0036760603243175508,0.09745062138736073,0.1369397887712345
3.356135,0.0351772517565291,0.003438962528147617,0.09527174406116157,0.13388795834583828
3.3584370000000003,0.03431053510220899,0.003443662704723673,0.09381899474586687,0.13157319255279953
3.360739,0.033613511406958944,0.0031339732925457623,0.0932541737047761,0.1300016584042808
3.3630400000000003,0.033000840897758274,0.003027958198663611,0.09371638970084777,0.12974518879726965
3.365342,0.03246956381369296,0.0028733746134955484,0.09504482905775392,0.1303877674849424
3.3676440000000003,0.0317459022702168,0.002725580172270677,0.09687593447655654,0.131347416919044
3.3699449999999995,0.031243236208320282,0.002640454752059886,0.09882691021237676,0.1327106011727569
3.372247,0.030613793720606863,0.002390300909845352,0.10068416018591983,0.13368825481637206
