Wavelength,H2O_NH3_CO2_CH4_10_1_1_1_72K_b,H2O_CH4_10_0.6_a_V3,CH3OH,all
2.85208,0.1647892398519978,0.07530142110543211,0.01193019116603318,0.2520208521234631
2.854382,0.1741765602853921,0.07842733195997956,0.012938189256800656,0.26554208150217234
2.8566830000000003,0.1827265880147912,0.0816455476216551,0.014231024289761569,0.2786031599262078
2.858985,0.19292414410240413,0.08486096145107379,0.01571276672479897,0.2934978722782769
2.861286,0.2019218430190157,0.08828869190262191,0.01719401721347679,0.3074045521351144
2.863588,0.2118458769307054,0.09187488153402908,0.018644767027861026,0.32236552549259545
2.8658900000000003,0.2220040773095525,0.09526120713111501,0.02066174710211512,0.3379270315427826
2.868191,0.23274621801721398,0.09892802726858008,0.022680694961807503,0.3543549402476016
2.870493,0.2435075446328989,0.102638742778069,0.024678489128038203,0.3708247765390062
2.872795,0.2544179309955349,0.1062990253069348,0.026652177922649768,0.3873691342251195
2.875096,0.2657213824994706,0.1099870148436738,0.028695723100320876,0.4044041204434653
2.877398,0.2768861051300064,0.11379454922337127,0.031072807909783264,0.42175346226316096
2.879699,0.2891252386098521,0.11758044723175208,0.03306273093426078,0.439768416775865
2.882001,0.3010790432011449,0.12133381285448397,0.03534241036452747,0.4577552664201563
2.884303,0.3133963961521629,0.12482925425223905,0.03732692197904968,0.4755525723834517
2.886604,0.32532953899635353,0.12887899146480558,0.03947574367766965,0.4936842741388288
2.888906,0.3380857081001117,0.13284763119927134,0.041499119054598216,0.5124324583539813
2.891208,0.3513185732262973,0.13656270511449314,0.043592350814586296,0.5314736291553768
2.893509,0.3629840972508796,0.14027591114154367,0.04566393693475312,0.5489239453271764
2.895811,0.37631289191718215,0.1439948764904555,0.04717962366860114,0.5674873920762388
2.898112,0.3895467409360869,0.14780085429667694,0.049305323888321116,0.586652919121085
2.900414,0.4024864060319663,0.15135513417182567,0.050892834790666974,0.6047343749944589
2.902716,0.4152283086912968,0.15510818847986238,0.05291325848943808,0.6232497556605973
2.905017,0.4287219053880567,0.15856673908623573,0.0549469647399177,0.6422356092142101
2.907319,0.4411745435879577,0.1622457004968138,0.057508037487860826,0.6609282815726324
2.909621,0.4546405912885814,0.1653677199176712,0.059764103492867975,0.6797724146991205
2.911922,0.4680810577785072,0.16817017480390126,0.06267052258523216,0.6989217551676407
2.9142240000000004,0.4815584202454012,0.17212931944016324,0.06523602285041145,0.7189237625359759
2.916525,0.4956325136464586,0.17527141865886134,0.06840317351334996,0.7393071058186701
2.918827,0.5096623318751544,0.1785313504896943,0.07099376304286753,0.7591874454077162
2.921129,0.5239971568467859,0.1817006897442228,0.07418797075558263,0.7798858173465915
2.92343,0.5406151048732015,0.18465101911067489,0.07801678927214838,0.8032829132560249
2.925732,0.5555442010471988,0.1876755970319333,0.08119328691591879,0.8244130849950508
2.928034,0.5723451531193758,0.19043104339918748,0.08502407321792284,0.8478002697364861
2.930335,0.5868777405275564,0.19297214959879347,0.0883442191986889,0.8681941093250387
2.932637,0.6001386465962377,0.1960555659974455,0.09218927194512062,0.8883834845388038
2.9349380000000003,0.6128038056234747,0.19848491022147308,0.09558566961162067,0.9068743854565684
2.93724,0.6250222773562184,0.20101932315513213,0.0993697210094652,0.9254113215208156
2.939542,0.6355341871675992,0.2034659453447436,0.10266674551133127,0.941666878023674
2.941843,0.6447203015399278,0.2049252329785142,0.10665938216563524,0.9563049166840772
2.944145,0.6558496040325741,0.2076714955622599,0.11004052949498852,0.9735616290898224
2.946447,0.6653072727953875,0.21049589813450187,0.11344774998139917,0.9892509209112884
2.948748,0.6753390429598239,0.2114620632910688,0.11692285906543112,1.0037239653163241
2.95105,0.6855444701891901,0.21425440044970467,0.11977073654100599,1.0195696071799007
2.953351,0.6933246018658556,0.2162810591154853,0.12256548380974686,1.032171144791088
2.955653,0.7027532457934541,0.2184179231833684,0.12529726194446222,1.0464684309212848
2.957955,0.7086492229129506,0.21988001264939588,0.12764286218691187,1.0561720977492584
2.960256,0.714094577167077,0.22201952289218815,0.12996091343322533,1.0660750134924906
2.962558,0.7215013215568258,0.22329778103069745,0.1325519949091025,1.0773510974966256
2.96486,0.7258102797203358,0.22521968230154185,0.13483118239300962,1.0858611444148871
2.967161,0.7312290688710453,0.22660363177907306,0.13730026117171235,1.0951329618218308
2.969463,0.7349481833494259,0.22765571979151636,0.13895959624255605,1.1015634993834984
2.971764,0.7420430337472047,0.22948936334627024,0.1414114568986737,1.1129438539921486
2.974066,0.7474234510818675,0.2312434659963995,0.14387069675018502,1.1225376138284522
2.976368,0.7532476040328661,0.23261698643164136,0.1458871848780795,1.131751775342587
2.978669,0.7583574508697629,0.23418772472629515,0.1480866770517356,1.1406318526477937
2.980971,0.7653421052829971,0.2358215042467279,0.1505001658918065,1.1516637754215315
2.983273,0.7731994725381156,0.237058357530775,0.15326588832533247,1.1635237183942229
2.985574,0.7766317822888646,0.2376931281942968,0.15620821950194558,1.1705331299851072
2.987876,0.7851478657194529,0.23966810862067356,0.1591156224870289,1.1839315968271555
2.990177,0.7936600135791648,0.241312161526048,0.16204417916557395,1.1970163542707868
2.992479,0.7986247362399874,0.2422098374496699,0.1658198674753057,1.2066544411649631
2.994781,0.8062115329973404,0.2436099752913517,0.16876367449099752,1.2185851827796896
2.997082,0.8144039157233289,0.2446447853382112,0.17247688561306335,1.2315255866746035
2.999384,0.8199998055634851,0.24598873087740855,0.17625700144003126,1.2422455378809252
3.001686,0.8276126754778954,0.2474637399032871,0.17992200181885884,1.2549984172000412
3.003987,0.8354164205798204,0.2485005734956653,0.18308570885728032,1.2670027029327662
3.006289,0.8420926246256014,0.2493823723698318,0.18683729179539293,1.2783122887908258
3.0085900000000003,0.8496144844634906,0.2506433525427573,0.1906587311165651,1.290916568122813
3.010892,0.8576878161704623,0.25176050532649824,0.1945091952729521,1.303957516769913
3.013194,0.864908604836292,0.2525727253662866,0.1983601513756987,1.3158414815782773
3.015495,0.8740327339673141,0.25376646156504784,0.20226374573891973,1.3300629412712817
3.0177970000000003,0.8814596481578052,0.25464265677470066,0.20531676484643707,1.341419069778943
3.020098,0.8890892442484409,0.25548881011626623,0.20935958002941754,1.3539376343941243
3.0224,0.8969008604921193,0.2558421522953233,0.21256805418656027,1.3653110669740027
3.024702,0.9021376294897864,0.2558499351627034,0.215574338389918,1.3735619030424078
3.027003,0.9058985594087308,0.2561789947955344,0.21827905947485685,1.380356613679122
3.029305,0.9139915689700856,0.2576210044637212,0.22191405112575036,1.3935266245595572
3.031607,0.921005740164894,0.2581637816348101,0.22460204603446365,1.4037715678341676
3.0339080000000003,0.92475338753213,0.25831539189137465,0.2265816381853901,1.4096504176088944
3.03621,0.9297136826757164,0.25844443183253685,0.22946198412069685,1.4176200986289498
3.038511,0.9347521972904748,0.2580914009681751,0.2315256990991105,1.4243692973577606
3.040813,0.9401188401270696,0.25858327818659804,0.2335746556867369,1.4322767740004043
3.043115,0.9432549981693548,0.2584411630282372,0.2356078699908569,1.437304031188449
3.045416,0.9489251719098069,0.25797699281768743,0.2373001654677921,1.4442023301952862
3.047718,0.9514454131099052,0.2575852032737727,0.2389270320789039,1.4479576484625818
3.05002,0.9547537523780416,0.2571197878044421,0.2404791228433604,1.4523526630258443
3.052321,0.9574766754782844,0.2565586430663362,0.2421010699908764,1.456136388535497
3.054623,0.9612607268761292,0.25586332169459713,0.2428566995991823,1.4599807481699083
3.056924,0.9608568389149188,0.25427608372109745,0.24362561175919675,1.4587585343952132
3.059226,0.9638129445896,0.253771131285476,0.2444752031221813,1.4620592789972573
3.061528,0.9656656145797562,0.25296202439263965,0.2453080683089404,1.4639357072813362
3.063829,0.9648081520750186,0.25159161710434985,0.246074520737157,1.4624742899165255
3.066131,0.9671089851987471,0.2507636756724537,0.2460268019402783,1.463899462811479
3.068433,0.9656665984724752,0.24908895826960165,0.2461251912121931,1.46088074795427
3.070734,0.964538073523612,0.24771030114188894,0.2469127973338714,1.4591611719993725
3.073036,0.9634789130114492,0.24618485913538735,0.2469388704909288,1.4566026426377652
3.075337,0.9618589336493713,0.244731330823478,0.24691870069018626,1.4535089651630355
3.077639,0.9597366770541684,0.24318222890014085,0.24610206973329316,1.4490209756876025
3.079941,0.9547099691520394,0.2410123654745661,0.2461281428903505,1.441850477516956
3.082242,0.9531436119431552,0.23946419749531464,0.24606025429272935,1.4386680637311993
3.084544,0.9483313926538008,0.23762853039504184,0.24530511663078294,1.4312650396796256
3.086846,0.9442290519613118,0.2358851681018972,0.2444702836585856,1.4245845037217943
3.089147,0.94125031675409,0.2338315807149813,0.24372055740659454,1.418802454875666
3.0914490000000003,0.9354650275654979,0.2318522418828717,0.2427966821433143,1.4101139515916843
3.09375,0.926385665553197,0.2291523651887115,0.2415505820145129,1.3970886127564217
3.096052,0.9248301311642236,0.2274514973514622,0.2404609208280561,1.3927425493437418
3.098354,0.917640335119047,0.2253496561867897,0.2396885650435247,1.382678556349361
3.100655,0.9122205620756184,0.2230621158064277,0.2380159474209725,1.3732986253030186
3.102957,0.9049377881684824,0.22076648124399045,0.2369198909318413,1.3626241603443139
3.105259,0.8984613143446886,0.2182754967103124,0.2348625712561021,1.351599382311103
3.10756,0.8905454054727806,0.21586125124900216,0.23331392411616256,1.339720580837945
3.109862,0.8836566805996634,0.2133506538895263,0.2317239534820189,1.3287312879712083
3.112163,0.8763429140718743,0.2107757700454906,0.22948117002872026,1.3165998541460848
3.114465,0.8679375185721899,0.20820399934840705,0.2271542637479344,1.3032957816685315
3.116767,0.8607029554082923,0.20554101344562853,0.224903117206523,1.2911470860604441
3.119068,0.8522572203071229,0.2027620628188864,0.22252603239706065,1.27754531552307
3.12137,0.8451205544687804,0.20012180288885786,0.21984197305922396,1.2650843304168622
3.123672,0.8367746844786048,0.19730782935890526,0.21722580231900854,1.2513083161565186
3.125973,0.8283161587720863,0.1944303476311309,0.2144522087437294,1.2371987151469468
3.128275,0.8198315599085108,0.19159613864599,0.21158957287736724,1.223017271431868
3.130576,0.8109017495895204,0.18871040707879275,0.20855229605335635,1.2081644527216695
3.132878,0.8025116044269829,0.1857320593897722,0.20487302923010112,1.1931166930468564
3.13518,0.7934986551732246,0.18276803217673104,0.2021422349881049,1.1784089223380607
3.137481,0.7853579268149913,0.1797633783959657,0.1985264292452348,1.1636477344561915
3.139783,0.7757871103894758,0.17689617005313313,0.19492587383951146,1.1476091542821203
3.142085,0.7684290686893249,0.17387766276843122,0.19137894058698168,1.1336856720447377
3.144386,0.7573169843192635,0.17075019534040775,0.1879343321772433,1.1160015118369149
3.146688,0.7498059473012851,0.1677508339094609,0.18440117342278164,1.1019579546335276
3.148989,0.7396821831676083,0.16492145030209565,0.18026046091424586,1.0848640943839496
3.151291,0.7301221895620035,0.16164813193936894,0.17704411561534994,1.0688144371167223
3.153593,0.7200668059723075,0.15870387320947327,0.17289012055510564,1.0516607997368863
3.155894,0.7114710272314679,0.15566964453266355,0.1690248980079314,1.0361655697720629
3.158196,0.7015897926530612,0.1525866951060543,0.1647794009248063,1.0189558886839218
3.160498,0.6913213962896696,0.14953830161061274,0.16116851464553192,1.0020282125458142
3.162799,0.6823050034113942,0.146573340453486,0.1570076323362536,0.9858859762011338
3.165101,0.67253642454933,0.1433725584147419,0.15367076017926198,0.9695797431433341
3.167402,0.6619748281556321,0.14050254823965247,0.14957678257488574,0.9520541589701704
3.1697040000000003,0.6527267285419972,0.13744777279295925,0.1460544466403347,0.9362289479752912
3.172006,0.6427667825460587,0.1340651829722158,0.1422020146985094,0.9190339802167841
3.174307,0.6321313941984248,0.13121696482579065,0.13847798075653295,0.9018263397807484
3.176609,0.6217926495056141,0.12836407695893748,0.13534133076788799,0.8854980572324395
3.1789110000000003,0.6124004096086241,0.12540907787205727,0.13183473711684335,0.8696442245975246
3.181212,0.6031842865083614,0.12233593485834697,0.1286744737029389,0.8541946950696474
3.183514,0.5925759552105041,0.11947339623594247,0.12512508071861125,0.8371744321650578
3.1858150000000003,0.5826676635823207,0.11644928528672685,0.1220937072509152,0.8212106561199627
3.188117,0.5735194290796795,0.11359126072740283,0.11915088412794254,0.8062615739350247
3.190419,0.5631605145861261,0.11062054024841478,0.11617165697436135,0.7899527118089023
3.19272,0.5528975296326899,0.10784252356575827,0.11331640030339288,0.7740564535018409
3.1950220000000003,0.5432617762877106,0.10485094500219153,0.11048721678948184,0.7585999380793839
3.197323,0.5334508900387229,0.10212242735607248,0.10756013595001554,0.743133453344811
3.199625,0.5237285541344586,0.0994088528153233,0.10499070011395964,0.7281281070637415
3.201927,0.5137533578013732,0.09660702055848364,0.10250981462262714,0.712870192982484
3.204228,0.5041225239199896,0.09373778867013224,0.09982034387483513,0.6976806564649569
3.20653,0.4944287209045806,0.09111511802038272,0.09743489597725996,0.6829787349022233
3.208832,0.4841308077596145,0.08824215035568883,0.09541545617120803,0.6677884142865114
3.211133,0.4746588725523735,0.08578214163418364,0.0932238351393051,0.6536648493258622
3.213435,0.4652681084944622,0.08323667702884482,0.09034644088215578,0.6388512264054629
3.215736,0.45518173228411296,0.08068685401777312,0.08826403194207832,0.6241326182439645
3.218038,0.4459661011302101,0.07814232335651991,0.08624655992146465,0.6103549844081947
3.22034,0.4367155417847773,0.07576185553963942,0.08422072481273822,0.596698122137155
3.222641,0.4267634669305921,0.07331601163676603,0.08254958302926478,0.5826290615966228
3.224943,0.417544392152172,0.0708701677338926,0.08046520630374902,0.5688797661898136
3.227245,0.40828596166498615,0.0684817613922844,0.07846544435208001,0.5552331674093506
3.229546,0.3993089244954767,0.06620776320116381,0.07728723282089987,0.5428039205175403
3.231848,0.3897951738476718,0.06394076959068533,0.07534355275422233,0.5290794961925795
3.234149,0.3813341884093557,0.06169541235152354,0.07346136598249156,0.5164909667433708
3.236451,0.3721082263819017,0.05946499821773159,0.07222510478088168,0.5037983293805149
3.238753,0.3633235402389858,0.05742417473331909,0.07025338377170841,0.4910010987440133
3.241054,0.3548610789615909,0.05536327145106593,0.06900531585746875,0.4792296662701256
3.2433560000000003,0.3463130190176301,0.053272948930115936,0.06715805727726773,0.4667440252250138
3.245658,0.3382800269121435,0.05131664738545146,0.0659852571560429,0.4555819314536378
3.247959,0.3293935078727957,0.04942042957696143,0.06403616567941006,0.4428501031291672
3.250261,0.32157402048736433,0.047575267378484914,0.06280236420959802,0.4319516520754473
3.252562,0.3139586908411562,0.04588389463943938,0.061560691598032825,0.4214032770786284
3.254864,0.3068146458074201,0.044206842376373234,0.05969227932437015,0.41071376750816346
3.257166,0.29861881945691443,0.04261524599714072,0.058514559739549575,0.3997486251936048
3.259467,0.2919844308516972,0.040877954340552525,0.057256652898118425,0.3901190380903681
3.261769,0.2844551918184145,0.039344573809323234,0.05604302122904895,0.3798427868567867
3.264071,0.27783851328214193,0.037907545176259695,0.054463381468456286,0.370209439926858
3.266372,0.2714294361096096,0.036515657174000786,0.053570498825829184,0.3615155921094396
3.2686740000000003,0.2650567629676859,0.0351312407244268,0.05179457246776642,0.3519825761598791
3.270975,0.2586496535805919,0.0338520486418319,0.050574053549662906,0.3430757557720867
3.273277,0.2527226838404423,0.03253222999151281,0.049337792348053015,0.3345927061800081
3.275579,0.2473093060996881,0.031416945095943026,0.048143838533366505,0.3268700897289976
3.27788,0.2418629679528425,0.030219473120839287,0.04697202230486085,0.31905446337854265
3.280182,0.236456969407482,0.02917096522739084,0.04574805976224031,0.3113759943971132
3.282484,0.2315350460799424,0.02818425330094048,0.045152312720795985,0.3048716121016789
3.284785,0.2264970234115433,0.02719209336732404,0.0438835830594542,0.29757269983832163
3.287087,0.2218161538001951,0.026324770626484563,0.042701435957397484,0.2908423603840771
3.289388,0.2174191372383212,0.025487489753732315,0.041558152617747104,0.2844647796098006
3.29169,0.21338665292889167,0.024763683087382072,0.04093584047288578,0.2790861764891596
3.293992,0.20913279275765387,0.02407754549915156,0.03971827323293972,0.2729286114897451
3.296293,0.20544073532904966,0.023484335347439562,0.03884457649833599,0.2677696471748253
3.298595,0.20205811216061773,0.023036820473083232,0.037896595863436564,0.26299152849713753
3.300897,0.19913152326751105,0.022671648335608464,0.03726198505958589,0.2590651566627053
3.3031980000000005,0.19607407664275756,0.022539028275451387,0.03618216280032058,0.2547952677185295
3.3055,0.1940467656949524,0.02259101782955052,0.035630690931237934,0.25226847445574085
3.307801,0.19241891519112145,0.022889101650208743,0.03506987208132339,0.2503778889226536
3.310103,0.1911895412385456,0.023618823295767862,0.034773228426500165,0.24958159296081364
3.3124050000000005,0.19017957536233984,0.02489552486080114,0.03461039418148111,0.2496854944046221
3.314706,0.1896546685966742,0.026908330022645224,0.034600063307930064,0.25116306192724946
3.317008,0.1893467101755808,0.02937721121296376,0.035161866050563755,0.2538857874391083
3.31931,0.1881616113953666,0.031904152593937925,0.0356828372453528,0.2557486012346573
3.321611,0.18589127894593185,0.03390964186044471,0.03641928094563533,0.2562202017520119
3.323913,0.18268969203782312,0.034885302115215316,0.038540061701759575,0.256115055854798
3.326214,0.18005482733594388,0.033848312865489436,0.040839418986409234,0.2547425591878425
3.3285160000000005,0.17587475911864214,0.030916506723401956,0.04357956020923737,0.2503708260512815
3.330818,0.17070145120136018,0.026623165761837986,0.04768091700900722,0.24500553397220534
3.3331190000000004,0.16520493452583798,0.02205213209215169,0.05189050200788338,0.23914756862587305
3.335421,0.16041731255446218,0.018309039854361518,0.05663778437777413,0.23536413678659784
3.3377230000000004,0.15563756172483956,0.015836578545048132,0.06192473190411772,0.2333988721740054
3.340024,0.1521265405565587,0.014375889995149056,0.06715756533090815,0.2336599958826159
3.3423260000000004,0.14905728721917544,0.01337828205436654,0.07274755181474946,0.23518312108829145
3.344627,0.146132666111507,0.012784449273264135,0.07704617910470854,0.2359632944894797
3.3469290000000003,0.14312490606907055,0.012292260740145966,0.08080317345277648,0.236220340261993
3.349231,0.1407704507921486,0.011871363272229613,0.08363284891304709,0.2362746629774253
3.351532,0.1392631271464133,0.011581996263037115,0.08592974646589889,0.2367748698753493
3.3538339999999995,0.1379038793549099,0.011300723435919934,0.08684230696290897,0.2360469097537388
3.356135,0.1365992376093192,0.011100081114860695,0.08747642582040008,0.23517574454458
3.3584370000000003,0.1355326979017624,0.010826591155123622,0.08743264259439798,0.23379193165128398
3.360739,0.13367018898441455,0.01060664732296171,0.08738984326111503,0.2316666795684913
3.3630400000000003,0.13163697468029453,0.010413320897239776,0.08802199433316782,0.23007228991070214
3.365342,0.12929481806236193,0.010245677933872205,0.08990959251485392,0.2294500885110881
3.3676440000000003,0.12805609712895416,0.01001732860493977,0.09243278539310984,0.23050621112700376
3.3699449999999995,0.12616456337639145,0.009858713767733129,0.0961130361090842,0.2321363132532088
3.372247,0.1245303175698861,0.009660094992192716,0.09887974243532932,0.2330701549974081
