Wavelength,H2O_40K,CO_CH3OH_10K,CH3OH,all
2.85208,0.10964314765951623,0.003632630316533762,0.012084350865056277,0.12536012884110626
2.854382,0.1137979997280016,0.003908191985263963,0.01310537411863346,0.130811565831899
2.8566830000000003,0.11846759900046222,0.004213153542701365,0.014414914924099954,0.13709566746726354
2.858985,0.12281977913552475,0.0045599725688066466,0.015915804157762458,0.14329555586209386
2.861286,0.1274221074761977,0.004946157547587671,0.01741619508822654,0.1497844601120119
2.863588,0.13216744883481926,0.00536772205345702,0.018885691220388145,0.15642086210866438
2.8658900000000003,0.13728502268266585,0.00582067966082728,0.02092873433393937,0.1640344366774325
2.868191,0.14209614006347973,0.006300047337714177,0.0229737706602843,0.1713699580614782
2.870493,0.14683550178372018,0.006800343748935013,0.024997379949096864,0.17863322548175206
2.872795,0.15193962144520926,0.0073140943465133815,0.0269965723811865,0.18625028817290912
2.875096,0.1572201404389415,0.00783133306648074,0.029066523867452787,0.19411799737287505
2.877398,0.16242641225610815,0.008344585360860681,0.03147432492225267,0.2022453225392215
2.879699,0.16782652401746292,0.008859332564835905,0.033489961359890415,0.21017581794218926
2.882001,0.17324158487477054,0.009385540742374951,0.03579909838140171,0.2184262239985472
2.884303,0.17844785669193716,0.009923209893477822,0.03780925348385675,0.2261803200692717
2.886604,0.1837572772711782,0.010458885831786984,0.03998584185458645,0.2342020049575516
2.888906,0.18891471537489896,0.010976124551754344,0.04203536290971722,0.2419262028363705
2.891208,0.19409208560655686,0.011468946414998772,0.04415564301902464,0.24971667504058026
2.893509,0.19940250279219476,0.01194083954390926,0.04625399778760128,0.2575973401237053
2.895811,0.2046959776690861,0.012393797151279522,0.04778926994195527,0.2648790447623209
2.898112,0.21043742712136349,0.012825327721117415,0.04994243806235888,0.2732051929048398
2.900414,0.21559835334747324,0.013228953311843391,0.05155046248368322,0.28037776914299983
2.902716,0.2203292439133404,0.013602680710663735,0.05359699371962343,0.2875289183436276
2.905017,0.2252918454664761,0.013955977678348568,0.05565697914192119,0.2949048022867459
2.907319,0.23027138932835844,0.01430080349166014,0.05825114559293281,0.3028233384129514
2.909621,0.2348433211739273,0.014640147969789012,0.060536364060919626,0.310019833204636
2.911922,0.2401004199173335,0.01496205183597294,0.06348033935722709,0.3185428111105336
2.9142240000000004,0.2446529179381638,0.01525455581344966,0.06607899053702458,0.32598646428863803
2.916525,0.24924029718288396,0.015507195535052216,0.0692870665284984,0.3340345592464345
2.918827,0.2538685372898751,0.01570801172401835,0.07191113117141566,0.3414876801853091
2.921129,0.2582924730855111,0.015848034922776373,0.075146613838803,0.34928712184709043
2.92343,0.2623850372541931,0.015930254950516847,0.07902490763216134,0.3573401998368713
2.925732,0.2662294464300585,0.015959654839224045,0.08224245138440531,0.3644315526536879
2.928034,0.2707271310990617,0.01594121762088225,0.08612273839055734,0.3727910871105013
2.930335,0.2734423852272911,0.015878929721078856,0.08948578667674204,0.37880710162511205
2.932637,0.2780785981854571,0.015776777565401294,0.09338052447564847,0.3872359002265069
2.9349380000000003,0.28226484335544344,0.01564223570182597,0.09682080975758936,0.3947278888148588
2.93724,0.28607885603620464,0.015486765103916703,0.10065375795989084,0.4022193791000122
2.939542,0.2897199575071116,0.0153213284420389,0.10399338599574942,0.4090346719448999
2.941843,0.2933097337485807,0.015153898567367385,0.108037614754184,0.4165012470701321
2.944145,0.2964475489890763,0.01499145172468014,0.11146245263697366,0.42290145335073015
2.946447,0.2998953088189936,0.014836977733167727,0.11491370058927992,0.4296459871414412
2.948748,0.3033520381064826,0.014678517316067903,0.11843371438296915,0.4364642698055197
2.95105,0.3066652560728245,0.01450411119661841,0.1213183915986638,0.4424877588681068
2.953351,0.3099356199641017,0.01431326107162082,0.12414925206892832,0.4483981331046509
2.955653,0.3111669271674152,0.0141273939786075,0.12691632972979414,0.4522106508758169
2.957955,0.3155604664679472,0.013966940348713966,0.1292922393798947,0.4588196461965559
2.960256,0.31896337901000604,0.013833893394733924,0.13164024405088334,0.4644375164556233
2.962558,0.32057788137290993,0.013715795536706692,0.13426480699699905,0.4685584839066157
2.96486,0.32448657166137235,0.013601185801068451,0.1365734457153119,0.4746612031777527
2.967161,0.32670750901676204,0.013484582852636505,0.13907442946821766,0.4792665213376162
2.969463,0.3301258689579721,0.013361501962625005,0.14075520615651238,0.4842425770771095
2.971764,0.3327668759096359,0.013231943131033952,0.14323874929747316,0.489237568338143
2.974066,0.3354646894259204,0.01310338090583975,0.14572976698641038,0.4942978373181705
2.976368,0.3390559605769847,0.012984784744614095,0.14777231179676314,0.49981305711836205
2.978669,0.3412455048308735,0.012873164828166415,0.15000022539693084,0.5041188950559707
2.980971,0.3443110661075972,0.012756063576536044,0.15244490088841434,0.5095120305725476
2.983273,0.3469984152567148,0.012621023409762292,0.15524636146997164,0.5148658001364487
2.985574,0.3496623441555062,0.012465552811853029,0.1582267128997643,0.5203546098671235
2.987876,0.3523980287148711,0.012290648389205109,0.16117168480246866,0.5258603619065448
2.990177,0.35510331677913193,0.012099299961009091,0.16413808374270533,0.5313407004828463
2.992479,0.3578086048433928,0.011899480378439813,0.16796256079063354,0.5376706460124661
2.994781,0.36052934030680495,0.011699162492672105,0.17094440713002146,0.5431729099294985
2.997082,0.36327847905252736,0.011501834426094962,0.17470559967174942,0.5494859131503718
2.999384,0.366044061803798,0.011300021630731976,0.17853456144846347,0.5558786448829933
3.001686,0.3687976852783063,0.011086747861805166,0.1822469202767456,0.562131353416857
3.003987,0.3715468240240287,0.010861016512917676,0.18545150814583045,0.5678593486827768
3.006289,0.3735410334241341,0.010626814009656926,0.1892515683370357,0.5734194157708268
3.0085900000000003,0.3762293791796485,0.010387628474411905,0.19312238758241765,0.579739395236478
3.010892,0.3788992877168211,0.010142463300785758,0.1970226067165068,0.5860643577341136
3.013194,0.3812318449886584,0.009891816791976914,0.20092332415379432,0.5920469859344297
3.015495,0.38315429872819023,0.009634194038390087,0.2048773600333136,0.5976658527998939
3.0177970000000003,0.3852735822311009,0.009367601827231576,0.2079698296827524,0.6026110137410848
3.020098,0.3871546768051632,0.009090046945707664,0.2120648853674265,0.6083096091182973
3.0224,0.3885499257607592,0.008805515819405774,0.2153148188275682,0.6126702604077332
3.024702,0.3897916973312396,0.008522479602699166,0.2183599496731564,0.6166741266070951
3.027003,0.39101403507698135,0.008248911146762673,0.22109962065810876,0.6203625668818528
3.029305,0.3925612665080976,0.007982318935604159,0.22478158299128675,0.6253251684349885
3.031607,0.3941508537110801,0.007713733511651937,0.2275043116674926,0.6293688988902246
3.0339080000000003,0.3944054866454764,0.0074391684493185905,0.22950948373796334,0.6313541388327584
3.03621,0.3952675511787553,0.007169586418969514,0.2324270489647542,0.634864186562479
3.038511,0.3952540969923978,0.006920933122954377,0.234517430882156,0.6366924609975082
3.040813,0.3961047005521128,0.0066961983804637425,0.23659286370360502,0.6393937626361816
3.043115,0.3963129912890554,0.006482426308338504,0.2386523508227043,0.6414477684200982
3.045416,0.39517984981583215,0.00626466781062585,0.2403665138252936,0.6418110314517516
3.047718,0.3952227038908968,0.006046909312913196,0.2420144025024921,0.6432840157063021
3.05002,0.39487438995519625,0.005845096517550209,0.2435865490935297,0.6443060355662762
3.052321,0.3933560601095888,0.005672683610894422,0.245229454738744,0.6442581984592272
3.054623,0.3926629203605767,0.005520202832175721,0.24599484845152805,0.6441779716442805
3.056924,0.3910897771631423,0.005370711872647583,0.24677369635066965,0.6432341853864596
3.059226,0.390537657219285,0.005217234487532028,0.2476342659743533,0.6433891576811703
3.061528,0.3885843086814506,0.005074719772781871,0.2484778932892904,0.6421369217435229
3.063829,0.3872199545241572,0.004961604946738911,0.2492542496724399,0.6414358091433361
3.066131,0.3852322230656314,0.0048763950998078716,0.2492059142621925,0.6393145324276317
3.068433,0.38272027664236025,0.004797164891257959,0.2493055749018779,0.6368230164354961
3.070734,0.3811815163656173,0.0047024872835568065,0.2501033583225597,0.6359873619717338
3.073036,0.3784049709439813,0.004594853792696545,0.25012976839207635,0.6331295931287542
3.075337,0.37569569645413303,0.0044882169082331395,0.2501093379609408,0.6302932513233069
3.077639,0.3741384989590482,0.004393539300531986,0.2492821546515518,0.627814192911132
3.079941,0.371524898683298,0.004303844724815103,0.2493085647210684,0.6251373081291814
3.082242,0.3678399465309294,0.004207672207518667,0.24923979887968556,0.6212874176181336
3.084544,0.3651949531536781,0.004099042110261553,0.2484749034700999,0.6177688987340395
3.086846,0.362009799109332,0.0039754629170516255,0.247629282942369,0.6136145449687526
3.089147,0.3589198209758853,0.003838429537484165,0.2468698688679661,0.6096281193813355
3.0914490000000003,0.3559319949981163,0.003690433487551308,0.24593405546131994,0.6055564839469876
3.09375,0.3527044851819037,0.003538949315229461,0.24467185345970405,0.6009152879568372
3.096052,0.3493130336134087,0.003389458355701323,0.24356811187518795,0.596270603844298
3.098354,0.3459210837417153,0.0032414623057684657,0.2427857758536573,0.591948321901141
3.100655,0.3418718719512964,0.0030904764366450465,0.2410915449790051,0.5860538933669466
3.102957,0.33883421565368466,0.002935504141934209,0.2399813254529095,0.5817510452485284
3.105259,0.3345737233071327,0.002780033544024945,0.2378974214770872,0.5752511783282448
3.10756,0.3309665064537187,0.002627054462107817,0.2363287630084386,0.5699223239242651
3.109862,0.3262879377236864,0.002479058412174961,0.2347182470711221,0.5634852432069835
3.112163,0.3226926801470347,0.002335048787829521,0.2324464827894929,0.5574742117243571
3.114465,0.31888963013663885,0.0021945272858730712,0.2300895086609325,0.5511736660834444
3.116767,0.31445871809622483,0.0020574939063056105,0.22780927322492997,0.5443254852274604
3.119068,0.3107976844973808,0.0019259418619208487,0.2254014721701301,0.5381250985294317
3.12137,0.3061873833055329,0.0018008677591156398,0.22268272991951168,0.5306709809841602
3.123672,0.3017066409452762,0.0016812749914931293,0.22003275351027626,0.5234206694470456
3.125973,0.2972194206434399,0.0015646720430611812,0.21722332007754414,0.5160074127640453
3.128275,0.2928149186725425,0.001451557217018223,0.21432369376589666,0.5085901696554573
3.130576,0.2884931350325841,0.0013479101517453807,0.2112471698188076,0.5010882150031369
3.132878,0.2842730052451047,0.0012587138792269248,0.20752036019777104,0.4930520793221027
3.13518,0.2791609127324408,0.0011814768834707199,0.20475427914330208,0.4850966687592135
3.137481,0.2748909526251188,0.0011097212228972132,0.2010917506348627,0.4770924244828787
3.139783,0.2698610801401953,0.0010364706527284258,0.19744466952557455,0.4683422203184984
3.142085,0.2650345153602301,0.000963220082559638,0.19385190346491496,0.4598496389077047
3.144386,0.2605662305799341,0.0008939559379782672,0.1903627844695282,0.4518229709874406
3.146688,0.2554092907794117,0.0008316680381748764,0.18678397089842455,0.4430249297160112
3.148989,0.2511692288639953,0.0007743631703557563,0.18258975287726345,0.43453334491161455
3.151291,0.24602275343064,0.0007200481217271995,0.1793318465659469,0.4260746481183141
3.153593,0.24098939282332754,0.0006677262858923512,0.17512417435842825,0.41678129346764814
3.155894,0.23624704128389654,0.0006208857852402013,0.17120900612838627,0.40807693319752303
3.158196,0.2310442575891189,0.0005825164389613122,0.16690864952596016,0.3985354235540404
3.160498,0.22632432969361715,0.0005496284278651218,0.16325110404950502,0.3901250621709873
3.162799,0.22152766310555766,0.0005172387199673587,0.1590364555972084,0.3810813574227334
3.165101,0.2165800106483747,0.0004808625864821784,0.1556564650022772,0.3727173382371341
3.167402,0.21114551596632844,0.0004409983306080081,0.15150958578496665,0.3630961000819031
3.1697040000000003,0.20657856715274386,0.00039864255874170237,0.14794173488422838,0.35491894459571394
3.172006,0.2017181177552856,0.00035778169647067773,0.14403952253734556,0.34611542198910183
3.174307,0.1966653233232345,0.0003253919885729145,0.14026736732525222,0.33725808263705964
3.176609,0.19149492933635465,0.00030745307342953785,0.13709018613208082,0.328892568541865
3.1789110000000003,0.18687167226134774,0.00030446325423897513,0.13353828093369227,0.320714416449279
3.181212,0.1820102262574927,0.00030844967982639215,0.1303371811869964,0.31265585712431554
3.183514,0.17688418125527286,0.00031293440861223623,0.12674192361034467,0.3039390392742297
3.1858150000000003,0.17190912212217638,0.00031293440861223623,0.1236713793016367,0.2958934358324253
3.188117,0.16690914782915858,0.0003029683446436937,0.12069052956864565,0.28790264574244795
3.190419,0.16249966282627692,0.00028253791350818145,0.11767280539897093,0.2804550061387561
3.19272,0.15804832035472738,0.0002616091791742421,0.11478065363529988,0.27309058316920154
3.1950220000000003,0.1527418895946769,0.0002511448120072724,0.11191491194114547,0.2649079463478297
3.197323,0.1484933565248872,0.0002551312375946894,0.10895000791050408,0.257698495672986
3.199625,0.14319988164799585,0.0002685854239522218,0.10634737030511918,0.24981583737706725
3.201927,0.13916113422474394,0.0002860260358971714,0.1038344272754512,0.24328158753609236
3.204228,0.13457475158642068,0.0003029683446436937,0.10111020368965007,0.2359879236207144
3.20653,0.13013088366284756,0.0003149276214059448,0.09869393148047692,0.22913974276473045
3.208832,0.12566309718574994,0.00031941235019178885,0.09664839685093356,0.22263090638687527
3.211133,0.12116142609115925,0.000323398775779206,0.09442845610194073,0.2159132809688792
3.213435,0.1167609105458493,0.00033535805254145704,0.09151388069434044,0.2086101492927312
3.215736,0.11238879828284967,0.0003572833932722506,0.0894045632553984,0.20215064493152032
3.218038,0.10815571261221124,0.00037920873400304434,0.08736102183864876,0.19589594318486306
3.22034,0.1039136574840011,0.0003901714043684411,0.08530900926752584,0.18961283815589536
3.222641,0.10034580658326284,0.0003911680107652953,0.0836162733024689,0.18435324789649704
3.224943,0.09610873448703698,0.0003971476491464209,0.08150496265073316,0.1780108447869166
3.227245,0.09193345198741608,0.00041907298987721453,0.07947936014912688,0.17183188512642014
3.229546,0.08847223797114126,0.0004499677881796964,0.0782859239888939,0.16720812974821486
3.231848,0.0846980895462542,0.00047388634170419854,0.07631712805190832,0.1614891039398667
3.234149,0.08100964927149659,0.0004808625864821784,0.07441062001472612,0.1559011318727049
3.236451,0.07758082496311954,0.0004773744640931884,0.07315838407707878,0.15121658350429149
3.238753,0.07411562452125726,0.00047338803850577137,0.07116118485778282,0.14575019741754586
3.241054,0.07113178496907564,0.0004753812512994799,0.06989698964337322,0.14150415586374834
3.2433560000000003,0.06748221234379535,0.00048634392166487666,0.06802586113327935,0.13599441739873958
3.245658,0.06480582586504326,0.0005092658687925246,0.06683790630822907,0.13215299804206485
3.247959,0.061628644671871874,0.0005361742415075895,0.0648636290360608,0.12702844794944027
3.250261,0.05874745557856623,0.000554113156650966,0.06361388461440556,0.12291545334962276
3.252562,0.05604764884948805,0.0005551097630478204,0.06235616734157549,0.11895892595411135
3.254864,0.05355114982536815,0.0005501267310635492,0.060463611793949275,0.11456488835038095
3.257166,0.05106411856201835,0.0005556080662462475,0.05927067393691472,0.11089040056517932
3.259467,0.048557653473929895,0.0005780317101754682,0.05799651265853655,0.10713219784264193
3.261769,0.04609653397689832,0.0006019502636999704,0.05676719866801683,0.1034656829086151
3.264071,0.04371613959801191,0.0006094248116763774,0.05516714709786731,0.0994927115075556
3.266372,0.041764285969772864,0.0006009536573031161,0.05426272679272208,0.09662796641979804
3.2686740000000003,0.03994298777952171,0.0005934791093267093,0.052463852246400135,0.09300031913524856
3.270975,0.03778583323353067,0.0006024485668983975,0.051227562011102436,0.08961584381153151
3.273277,0.03615787668426925,0.0006208857852402013,0.04997532607345507,0.08675408854296451
3.275579,0.034388900329852944,0.0006303535460103168,0.04876594421087243,0.08378519808673568
3.27788,0.032759947174194656,0.0006203874820417741,0.04757898599221902,0.08095932064845546
3.280182,0.031030336772454106,0.0006044417796921062,0.046339207634532316,0.07797398618667853
3.282484,0.029765144951647626,0.0005984621413109805,0.04573576246123707,0.07609936955419568
3.284785,0.028105795300885285,0.0006104214180732315,0.0444506385124935,0.07316685523145201
3.287087,0.026993084258797508,0.0006358348811930151,0.04325321592667312,0.07088213506666365
3.289388,0.025811109072128368,0.0006677262858923512,0.042095159293528465,0.06857399465154919
3.29169,0.02466849983813496,0.0007075905417665213,0.04146480574751815,0.06684089612741964
3.293992,0.023505958476204483,0.0007584174680060887,0.04023150533141102,0.06449588127562159
3.296293,0.02236235263581421,0.0008256883997937508,0.03934651885100444,0.0625345598866124
3.298595,0.02123519080097205,0.0009178744915027693,0.03838628858763536,0.060539353880110176
3.300897,0.020119988242892132,0.001045440110300114,0.03774347746166437,0.058908905814856624
3.3031980000000005,0.019462228020968333,0.0012173547137574732,0.036649701941116816,0.05732928467584264
3.3055,0.018329584850943468,0.0014440826690418165,0.036091104055680015,0.055864771575665294
3.307801,0.017582130053302773,0.0017350917369232588,0.03552303840947309,0.05484026019969912
3.310103,0.01656608983170986,0.0020893853110049466,0.03522256158082153,0.05387803672353633
3.3124050000000005,0.016054830750123632,0.002495004114524629,0.03505762322214215,0.053607458086790405
3.314706,0.01539208749621555,0.002939988870720054,0.03504715885497518,0.05337923522191079
3.317008,0.014668551252099359,0.0034123803028289715,0.03561622110757896,0.05369715266250729
3.31931,0.013991855508635322,0.003900219134089129,0.03614392419471329,0.05403599883743774
3.321611,0.01350302007097831,0.004390549481341423,0.03688988408275869,0.05478345363507843
3.323913,0.012578667637895988,0.004865432429442476,0.03903806917117804,0.0564821692385165
3.326214,0.012143648945669105,0.005305932456852057,0.04136713832062643,0.0588167197231476
3.3285160000000005,0.011675243939147605,0.005691120829236226,0.04414268713586554,0.06150905190424937
3.330818,0.011042897180343578,0.0059990722058641905,0.048297040901152506,0.06533901028736028
3.3331190000000004,0.010748399990073144,0.006206864639608303,0.052561021370093435,0.06951628599977487
3.335421,0.01006273478903742,0.006309515098484292,0.05736964723491522,0.07374189712243694
3.3377230000000004,0.009622733064826266,0.006314498130468563,0.06272491170841156,0.07866214290370639
3.340024,0.009325246055365269,0.006233773012323369,0.06802536283008093,0.08358438189776958
3.3423260000000004,0.00889720360791637,0.006114180244700858,0.07368758207380838,0.08869896592642561
3.344627,0.008530950757072428,0.006011031482626442,0.07804175542166462,0.09258373766136348
3.3469290000000003,0.008028661133057884,0.005966682497966429,0.0818472969480526,0.0958426405790769
3.349231,0.007698784415699125,0.005993092567483066,0.08471353694540543,0.09840541392858762
3.351532,0.0074411616621123,0.006095743026359054,0.08704011457886167,0.10057701926733303
3.3538339999999995,0.007015112427457105,0.006278121996983382,0.087964467011944,0.10125770143638448
3.356135,0.0065626531232852725,0.006536741356967063,0.08860677983471657,0.10170617431496892
3.3584370000000003,0.0065716225808569615,0.006869109590317956,0.08856243085005656,0.10200316302123147
