Wavelength,H2O_NH3_CO2_CH4_10_1_1_1_72K_b,CH3OH,H2O_CH3OH_CO_NH3_100K_NASA,all
2.85208,0.12141097944424728,0.008149864458626262,0.07336085827965973,0.20292170218253325
2.854382,0.12832723058539594,0.008838457600176104,0.07843666137289433,0.2156023495584664
2.8566830000000003,0.13462659358891566,0.009721631234140469,0.08363908536434944,0.2279873101874056
2.858985,0.14213979817464412,0.010733853070327938,0.08876324368249504,0.2416368949274671
2.861286,0.14876898973588554,0.011745738843488784,0.09470395724192114,0.2552186858212955
2.863588,0.15608067269733567,0.012736788708999029,0.09966809466113448,0.2684855560674692
2.8658900000000003,0.1635648813659018,0.014114647118151953,0.1046013246170026,0.2822808531010564
2.868191,0.1714793169553642,0.015493849779411371,0.10953505308034407,0.2965082198151197
2.870493,0.17940788805444324,0.016858601730526016,0.11472102632517998,0.31098751611014924
2.872795,0.18744628118977472,0.018206886593336156,0.11906053388033686,0.3247137016634477
2.875096,0.1957742710477651,0.019602892405926702,0.12404909816574232,0.3394262616194341
2.877398,0.20400005029775825,0.021226748950567424,0.12842001169171768,0.3536468109400433
2.879699,0.21301741808628336,0.02258612389325611,0.13291854313086016,0.3685220851103996
2.882001,0.2218245654753815,0.024143439958625536,0.13721268650594587,0.3831806919399529
2.884303,0.23089956264926684,0.02549911820802137,0.14122965972587168,0.3976283405831599
2.886604,0.2396914871818548,0.02696704150830918,0.1454016687699966,0.4120601974601605
2.888906,0.24908978883210026,0.0283492687368082,0.14972472557853425,0.4271637831474427
2.891208,0.25883930352897466,0.02977921691508764,0.15369284506607572,0.4423113655101381
2.893509,0.26743405582485863,0.031194378320195688,0.1575991496269269,0.4562275837719812
2.895811,0.27725424806981624,0.03222978850522012,0.16152290194934382,0.4710069385243802
2.898112,0.2870044876646197,0.033681916843256665,0.16618294980983853,0.4868693543177149
2.900414,0.2965379827786347,0.034766392230167996,0.17013760959560065,0.5014419846044034
2.902716,0.3059257734089088,0.03614660308050728,0.1747891828290491,0.5168615593184651
2.905017,0.3158673860569837,0.03753588763256538,0.1788963859016438,0.5322996595911929
2.907319,0.3250420566961147,0.03928543174916298,0.18331017107032374,0.5476376595156014
2.909621,0.3349633722021759,0.040826616789254526,0.1877668278817083,0.5635568168731387
2.911922,0.3448658403620817,0.042812077150541236,0.1925470160432705,0.5802249335558934
2.9142240000000004,0.3547954921943272,0.044564645834378434,0.19742740420696786,0.5967875422356734
2.916525,0.3651647946205467,0.04672821959977516,0.20273002820055816,0.6146230424208801
2.918827,0.3755014766399588,0.04849792749797011,0.20783524323471803,0.6318346473726468
2.921129,0.3860628770173788,0.05067998472983108,0.21277944035499896,0.6495223021022088
2.92343,0.39830640303917947,0.05329556326603529,0.21794547330090253,0.6695474396061173
2.925732,0.409305641765751,0.05546552222893784,0.2234764137172684,0.6882475777119573
2.928034,0.42168399880235663,0.058082445017248525,0.22940217205249525,0.7091686158721004
2.930335,0.4323911036635176,0.0603505343839249,0.23400788259839925,0.7267495206458418
2.932637,0.4421612779513701,0.06297720300000767,0.2411923723037319,0.7463308532551097
2.9349380000000003,0.4514925265431777,0.06529738213581054,0.2469007813805959,0.7636906900595841
2.93724,0.4604946714751927,0.06788237893659209,0.25272035762400785,0.7810974080357926
2.939542,0.4682394809492553,0.0701346733410172,0.2588809129791633,0.7972550672694358
2.941843,0.4750074904639115,0.07286216086508675,0.26505592505104475,0.8129255763800429
2.944145,0.4832071733884585,0.07517192204706433,0.27092535204178764,0.8293044474773104
2.946447,0.4901752547315349,0.0774994945694529,0.2766447282830645,0.8443194775840521
2.948748,0.4975663140162169,0.07987344378951541,0.28296829558199205,0.8604080533877243
2.95105,0.5050853177853778,0.08181891265063403,0.28885566884177405,0.8757598992777859
2.953351,0.5108174481594092,0.0837280867048774,0.2946637794133,0.8892093142775865
2.955653,0.5177641450135783,0.08559424469171306,0.2986508421848271,0.9020092318901184
2.957955,0.5221080958534623,0.08719659320264993,0.3053178811328648,0.9146225701889771
2.960256,0.5261200434418374,0.08878012218409592,0.3105616812446046,0.925461846870538
2.962558,0.531577075051791,0.09055016614531752,0.3142172365463812,0.9363444777434896
2.96486,0.5347517655321034,0.09210714614766033,0.3207681232531377,0.9476270349329016
2.967161,0.5387441408763939,0.09379384647827947,0.32625768754921897,0.9587956749038924
2.969463,0.5414842550482356,0.09492738706707772,0.3311799503406744,0.9675915924559876
2.971764,0.5467114940146776,0.09660232519176508,0.3364501713484995,0.9797639905549422
2.974066,0.5506755983397349,0.0982823042618518,0.3417881893726948,0.9907460919742814
2.976368,0.5549666316307976,0.0996598266079781,0.34602051782109017,1.000646976059866
2.978669,0.5587313890253638,0.10116236440000803,0.3505040940360334,1.0103978474614053
2.980971,0.5638774394237511,0.10281108960861884,0.35601210310862713,1.022700632140997
2.983273,0.5696664742852136,0.10470043594429146,0.3604792285769512,1.0348461388064558
2.985574,0.5721952807107347,0.10671042890652163,0.3655051809228548,1.0444108905401108
2.987876,0.5784696347357019,0.10869656139386157,0.3702679213228512,1.057434117452415
2.990177,0.5847410891689528,0.11069714459134633,0.3749937721698227,1.0704320059301218
2.992479,0.5883989241189828,0.11327642832067525,0.3795850259990007,1.0812603784386587
2.994781,0.5939886120499542,0.1152874294719853,0.38426351863600783,1.0935395601579474
2.997082,0.6000244746562611,0.11782403319693315,0.3889405157505951,1.1067890236037892
2.999384,0.6041473316277821,0.12040634149350173,0.3926185038886706,1.1171721770099543
3.001686,0.6097562293538735,0.1229100110418406,0.39767935175770586,1.1303455921534198
3.003987,0.6155057572782022,0.12507123236605094,0.4028384055989831,1.1434153952432362
3.006289,0.6204245521758298,0.12763404900707542,0.40673922657762784,1.1547978277605329
3.0085900000000003,0.6259663968434833,0.13024458659788027,0.4110946863719306,1.1673056698132942
3.010892,0.6319145468003741,0.13287495190725587,0.4150568237697923,1.1798463224774225
3.013194,0.6372345727017356,0.1355056532796581,0.4192422925156967,1.1919825184970905
3.015495,0.6439569136468609,0.13817231339590896,0.4233460060359783,1.2054752330787482
3.0177970000000003,0.6494288056643602,0.14025792053912922,0.42675679416836,1.2164435203718496
3.020098,0.6550500266552456,0.14301968649191427,0.43073737634273424,1.228807089489894
3.0224,0.6608053537630069,0.1452114895515473,0.4338036958110592,1.2398205391256134
3.024702,0.6646636229904216,0.1472651707072384,0.43691537945945547,1.2488441731571154
3.027003,0.6674345453242483,0.14911284522760984,0.4405779138658584,1.2571253044177166
3.029305,0.6733971932397202,0.15159601493132469,0.4430191049626537,1.2680123131336989
3.031607,0.6785649905759793,0.15343226330879095,0.4462918065249288,1.278289060409699
3.0339080000000003,0.6813261267877637,0.15478458092792055,0.4493965110686987,1.285507218784383
3.03621,0.6849806996971131,0.15675222994879626,0.45145235588862603,1.2931852855345354
3.038511,0.6886929019918223,0.15816201434547833,0.4538412037007238,1.3006961200380245
3.040813,0.6926468577458728,0.15956171685136175,0.456659266447341,1.3088678410445755
3.043115,0.6949574698947473,0.16095066534039326,0.4586238843996526,1.3145320196347932
3.045416,0.6991350566599124,0.1621067221519752,0.4606144247405764,1.3218562035524641
3.047718,0.7009918827051961,0.16321808258101636,0.4615222068494724,1.3257321721356847
3.05002,0.7034293519916559,0.16427836143001084,0.4637859292857697,1.3314936427074364
3.052321,0.7054355070103256,0.16538636122878578,0.4647390755747369,1.3355609438138485
3.054623,0.7082234644454853,0.1659025540376782,0.4664504517306075,1.340576470213771
3.056924,0.7079258938456068,0.16642782054828942,0.4665506517327427,1.3409043661266389
3.059226,0.7101038496734635,0.1670082013952668,0.4675920338444857,1.344704084913216
3.061528,0.7114688324738809,0.16757715609933893,0.4689285323804277,1.3479745209536476
3.063829,0.7108370839287064,0.16810074229481706,0.4695925443348756,1.3485303705583993
3.066131,0.7125322577358101,0.16806814418123467,0.4699464846409251,1.3505468865579695
3.068433,0.7114695573718098,0.1681353567865592,0.4701349204658361,1.3497398346242049
3.070734,0.7106380994471796,0.1686733936921821,0.4701488786750886,1.3494603718144504
3.073036,0.709857746826548,0.1686912050325931,0.4701498756900353,1.3486988275491765
3.075337,0.708664202386353,0.16867742644850153,0.4701498756900353,1.34749150452489
3.077639,0.7071005975533734,0.16811956182430793,0.4698891562814946,1.345109315659176
3.079941,0.7033970940338128,0.1681373731647189,0.4688158696914598,1.3403503368899914
3.082242,0.7022430565307514,0.16809099646704506,0.4688527592444847,1.3391868122422812
3.084544,0.6986975807597254,0.1675751397211792,0.4682610308736666,1.3345337513545712
3.086846,0.6956751188445154,0.16700484076500052,0.4673981144373684,1.3300780740468845
3.089147,0.6934804903642902,0.1664926807124276,0.4663073800857677,1.3262805511624856
3.0914490000000003,0.6892180905414254,0.16586155434843025,0.4646897233348793,1.3197693682247351
3.09375,0.6825287324520721,0.16501030670199504,0.4637565173448444,1.3112955564989115
3.096052,0.6813826688262304,0.16426592709802582,0.4619120396936002,1.3075606356178564
3.098354,0.6760854772096342,0.16373830814622825,0.4608118337000068,1.3006356190558692
3.100655,0.6720923769674146,0.16259569385571118,0.458835750075809,1.2935238208989348
3.102957,0.6667266824965224,0.1618469454323959,0.4575441172124648,1.2861177451413832
3.105259,0.6619550418784939,0.16044152985505988,0.4552365261185163,1.27763309785207
3.10756,0.6561228755902525,0.15938360344725172,0.4531039111476994,1.2686103901852035
3.109862,0.6510475027399483,0.1582974477452073,0.4513327140950318,1.2606776645801874
3.112163,0.6456589739842907,0.15676533640683454,0.44962283346158105,1.2520471438527063
3.114465,0.6394661709763426,0.15517575829090932,0.4476138483441449,1.242255777611397
3.116767,0.6341359965039742,0.15363793388108402,0.4446940900729727,1.232468020458031
3.119068,0.6279134726809348,0.15201407733644332,0.4419383407605193,1.2218658907778974
3.12137,0.6226554255525077,0.15018051746319006,0.4400475019142573,1.2128834449299553
3.123672,0.6165064788692678,0.1483933342876107,0.4378201705235118,1.2027199836803903
3.125973,0.6102745313731504,0.14649861094351213,0.4343635197035856,1.191136662020248
3.128275,0.6040233740819132,0.1445430601915948,0.43247517339469016,1.1810416076681982
3.130576,0.5974442004777768,0.14246820706522648,0.4295265016900661,1.1694389092330693
3.132878,0.5912626333877291,0.13995479168911554,0.42668849864451663,1.1579059237213611
3.13518,0.5846222059085873,0.13808930582833315,0.4238579732110668,1.1465694849479873
3.137481,0.5786244004435559,0.13561924258265656,0.4210364209121366,1.1352800639383491
3.139783,0.5715729558386379,0.1331595972908053,0.4183070924957685,1.1230396456252116
3.142085,0.5661518066761727,0.13073658286885584,0.4150628058594721,1.1119511954045005
3.144386,0.5579648094653842,0.12838346955644395,0.4114531132452399,1.0978013922670682
3.146688,0.5524309386749504,0.12596986489923995,0.4087452206502241,1.0871460242244146
3.148989,0.5449721014339013,0.12314122240415698,0.4061654444758489,1.0742787683139072
3.151291,0.5379286307062029,0.12094404233609801,0.4021539548381295,1.0610266278804303
3.153593,0.5305201738712234,0.1181063261392962,0.3995831517982738,1.048209651808793
3.155894,0.5241871031140025,0.11546587893912193,0.3958089517178496,1.035461933770974
3.158196,0.5169069532124664,0.11256565501936833,0.3929849068815529,1.0224575151133877
3.160498,0.5093415559758457,0.11009895240395796,0.3894310471043313,1.008871555484135
3.162799,0.5026985913539521,0.10725653132478344,0.3862191634537999,0.9961742861325354
3.165101,0.4955014422652934,0.10497701581520193,0.38311595443245,0.9835944125129452
3.167402,0.4877200254458131,0.10218029930764808,0.3788786409093215,0.9687789656627828
3.1697040000000003,0.4809063473616263,0.0997740880370298,0.375745521439573,0.9564259568382292
3.172006,0.4735682056257656,0.0971423784755477,0.37224001688726255,0.9429506009885756
3.174307,0.46573242146160604,0.09459838136401412,0.3682125750103972,0.9285433778360171
3.176609,0.4581151940230576,0.092455643506268,0.3650674913612893,0.9156383288906148
3.1789110000000003,0.4511953183922637,0.09006018625250166,0.3615086465093347,0.9027641511541
3.181212,0.4444051994907712,0.08790131736947766,0.3579393330004406,0.8902458498606896
3.183514,0.4365893500196608,0.08547662263239511,0.3539398075420806,0.8760057801941366
3.1858150000000003,0.4292892654250756,0.08340580226234626,0.35001854775703023,0.862713615444452
3.188117,0.4225491644806882,0.08139547323708947,0.3466536223121929,0.8505982600299705
3.190419,0.4149170766345941,0.0793602755478626,0.34192478042038155,0.8362021326028383
3.19272,0.4073556663365833,0.07740976574134466,0.3380872698908471,0.8228527019687751
3.1950220000000003,0.4002563784683473,0.07547706727523773,0.3346221444438746,0.8103555901874597
3.197323,0.3930280587687389,0.07347749226683285,0.3310588130246602,0.797564364060232
3.199625,0.38586497988274576,0.07172223507878266,0.3265184069577598,0.7841056219192882
3.201927,0.3785156022289846,0.07002746923552458,0.3220961471620336,0.7706392186265427
3.204228,0.3714199388503939,0.06819021266897844,0.3177013052773394,0.7573114567967119
3.20653,0.36427788200434347,0.06656064305288514,0.31375860967093666,0.7445971347281652
3.208832,0.35669073782985106,0.0651811043285991,0.3095990633136445,0.7314709054720947
3.211133,0.3497121454668034,0.06368394354499513,0.3050686273962102,0.7184647164080087
3.213435,0.34279335718290305,0.06171831090227916,0.3004693974474592,0.7049810655326414
3.215736,0.3353620660631582,0.060295756110585415,0.29631633168732,0.6919741538610636
3.218038,0.32857230961063033,0.05891756163840586,0.2912096211307402,0.6786994923797764
3.22034,0.32175681928162075,0.05753365409477373,0.28694887775636624,0.6662393511327607
3.222641,0.3144244767291925,0.056392047993336525,0.2823017910901776,0.6531183158127065
3.224943,0.3076321831339129,0.0549681489495363,0.2770021581414272,0.6396024902248764
3.227245,0.3008108936214709,0.05360205274631516,0.2723136953549539,0.6267266417227401
3.229546,0.2941969249167397,0.05279718179755388,0.2671755788275557,0.6141696855418493
3.231848,0.28718752439170697,0.05146939677936772,0.26259628917773703,0.6012532103488117
3.234149,0.2809537646507671,0.0501836196395094,0.2576550831022959,0.5887924673925724
3.236451,0.27415639676998405,0.049339093253606636,0.25260370687525346,0.5760991968988441
3.238753,0.2676841456103839,0.047992152642903005,0.2473763575101329,0.5630526557634198
3.241054,0.26144929852255033,0.0471395607443613,0.24210414247241446,0.5506930017393261
3.2433560000000003,0.25515138531488873,0.04587764407939319,0.23749643789661726,0.5385254672908992
3.245658,0.2492329561730893,0.04507646982392476,0.23213399300622986,0.5264434190032439
3.247959,0.2426856780778316,0.04374498811244576,0.22673216602545104,0.5131628322157283
3.250261,0.2369245517866379,0.04290214204167611,0.22138916292652264,0.5012158567548367
3.252562,0.2313138418157239,0.0420539189624805,0.21636171505819904,0.4897294758364034
3.254864,0.22605035795282896,0.04077755158736762,0.2118691657087363,0.4786970752489329
3.257166,0.22001195820377034,0.03997301670163296,0.20673104918133808,0.4667160240867413
3.259467,0.2151239714681278,0.0391137035425588,0.20161785802760526,0.4558555330382919
3.261769,0.20957669006600646,0.038284636055880686,0.19656498627814287,0.4444263124000301
3.264071,0.20470175149308695,0.0372055376773953,0.19165119811373385,0.4335584872842161
3.266372,0.19997976638319886,0.03659558328407517,0.18656193531871987,0.4231372849859939
3.2686740000000003,0.195284602496686,0.03538239575796734,0.18192830835431054,0.4125953066089639
3.270975,0.190564067182656,0.03454862338891651,0.17715809034221455,0.4022707809137871
3.273277,0.18619728205800665,0.03370409700301375,0.17229863949239618,0.3922000185534166
3.275579,0.1822088936523259,0.032888472037400536,0.1675478632717592,0.3826452289614856
3.27788,0.1781962211660217,0.03208796990798536,0.1631694721336842,0.3734536632076913
3.280182,0.17421326949480895,0.031251845097748164,0.15856974367745996,0.3640348582700171
3.282484,0.170586967604693,0.03084487277250812,0.15406223910379785,0.355494079480999
3.284785,0.16687512775894814,0.029978166226848256,0.1497541375194595,0.346607431505256
3.287087,0.16342642586145156,0.029170606773873994,0.14571273743334154,0.33830977006866714
3.289388,0.16018685701648844,0.028389596300002918,0.14132786569811354,0.3299043190146049
3.29169,0.15721586285424155,0.027964476571325246,0.1376015223351271,0.3227818617606939
3.293992,0.15408176665795645,0.02713272058043415,0.13362094016075288,0.3148354273991435
3.296293,0.1513615871791638,0.026535872645152298,0.12983228336360272,0.30772974318791885
3.298595,0.14886938809906014,0.02588827919285042,0.12615579074794714,0.3009134580398577
3.300897,0.14671317920907515,0.025454757888507186,0.12256404440275412,0.2947319815003365
3.3031980000000005,0.1444605588945254,0.024717099545070436,0.11909991597072828,0.2882775744103241
3.3055,0.14296690671170004,0.02434037289222642,0.11607297859279465,0.2833802581967211
3.307801,0.14176756308807248,0.023957261041876586,0.11264025613158728,0.27836508026153634
3.310103,0.1408618031257137,0.023754615036823117,0.1096925814419098,0.2743089996044466
3.3124050000000005,0.140117695401535,0.02364337817501101,0.1069114082483176,0.2706724818248636
3.314706,0.1397309623563822,0.02363632085145194,0.10475785596362172,0.2681251391714558
3.317008,0.13950406930458684,0.024020104827855018,0.10236751262910394,0.2658916867615458
3.31931,0.13863092974903568,0.024375995573048426,0.10073739319138277,0.2637443185134669
3.321611,0.13695822777773284,0.02487908192390256,0.0994058797301738,0.26124318943180924
3.323913,0.13459940991657596,0.026327849631672864,0.09841135732092188,0.2593386168691707
3.326214,0.13265813326255688,0.027898608218107204,0.09822740806327078,0.2587841495439349
3.3285160000000005,0.12957840441095114,0.02977047927639545,0.09827626179565507,0.2576251454830017
3.330818,0.12576689109996075,0.032572236729348614,0.09954845286754024,0.2578875806968496
3.3331190000000004,0.12171724881927455,0.035447928048158765,0.10082961707394496,0.25799479394137825
3.335421,0.11818989549647516,0.03869093625506748,0.10215165889316104,0.2590324906447037
3.3377230000000004,0.1146683413571082,0.04230260560218127,0.10345276339849814,0.2604237103577876
3.340024,0.11208154309726236,0.045877308016366566,0.1047254529778566,0.2626843040914856
3.3423260000000004,0.10982022400756387,0.04969599218787992,0.10535407090169954,0.2648702870971433
3.344627,0.10766546491343702,0.05263251091450877,0.10542685299280267,0.2657248288207485
3.3469290000000003,0.10544945194430473,0.05519902424882607,0.10476034850098824,0.2654088246941191
3.349231,0.10371477120006736,0.05713205877795964,0.10297220219422804,0.26381903217225505
3.351532,0.10260422757274948,0.05870113704926086,0.10079222901344677,0.26209759363545715
3.3538339999999995,0.10160278108375496,0.05932453396364591,0.09848064985971187,0.2594079649071127
3.356135,0.10064156642982318,0.05975771920496253,0.09627874235010499,0.2566780279848907
3.3584370000000003,0.0998557770747236,0.05972780959559311,0.09481063784120933,0.254394224511526
3.360739,0.09848354529501556,0.059698572112276936,0.09423984678427023,0.2524219641915627
3.3630400000000003,0.09698554372461583,0.06013041310148706,0.094706948286761,0.2518229051128639
3.365342,0.09525992420449172,0.06141988693463823,0.09604942891238276,0.2527292400515127
3.3676440000000003,0.09434727771180686,0.06314355419818588,0.0978998886533066,0.25539072056329937
3.3699449999999995,0.09295366144319156,0.06565764170035003,0.09987148571024464,0.2584827888537862
3.372247,0.09174960598302516,0.06754766016207593,0.10174836634725387,0.26104563249235496
