Wavelength,H2O_CH4_10_0.6_a_V3,H2O_CH3OH_CO_NH3_120K_NASA,H2O_CH3OH_CO_NH3_100K_NASA,all
2.85208,0.17585344999717462,0.05404004301508019,0.07080672730151374,0.3007002203137685
2.854382,0.18315347435376844,0.05749855957750692,0.07570581128017667,0.31635784521145205
2.8566830000000003,0.19066906062867026,0.06122603979580408,0.08072710772501325,0.3326222081494875
2.858985,0.1981781037087498,0.06526290039106845,0.08567286339351414,0.3491138674933324
2.861286,0.2061829755520201,0.06897931412620814,0.09140674512340276,0.3665690348016309
2.863588,0.214557901413566,0.07291705752449702,0.09619805117914086,0.3836730101172039
2.8658900000000003,0.2224660793777976,0.07699096678076679,0.100959525845498,0.4004165720040624
2.868191,0.23102930384589246,0.0810369692534221,0.10572148166329674,0.4177877547626113
2.870493,0.2396950383662012,0.08511039735825028,0.11072690011055958,0.4355323358350111
2.872795,0.248242995379711,0.08933250125854167,0.114915323409937,0.4524908200481897
2.875096,0.2568556573197956,0.0931403337675908,0.11973020588631485,0.4697261969737012
2.877398,0.26574749557229244,0.09708481328606247,0.1239489417265149,0.4867812505848698
2.879699,0.27458880582032924,0.10100908444398574,0.1282908523357718,0.5038887426000869
2.882001,0.2833541423062643,0.10491603415001036,0.13243549085396095,0.5207056673102356
2.884303,0.2915171413577368,0.10898368843753896,0.13631260917060467,0.5368134389658804
2.886604,0.3009746024515273,0.11282760730471025,0.14033936558559484,0.5541415753418324
2.888906,0.3102426744062986,0.11697609503443247,0.14451191088739848,0.5717306803281296
2.891208,0.3189185872296641,0.12041488438775245,0.14834187636276253,0.5876753479801791
2.893509,0.3275901379231481,0.12466778198030808,0.15211217905936467,0.6043700989628208
2.895811,0.33627513851709984,0.12914297153889615,0.15589932205642373,0.6213174321124197
2.898112,0.3451633416613622,0.13327750587681114,0.16039712573276838,0.6388379732709417
2.900414,0.3534637478041001,0.13738942609696958,0.16421410011920845,0.6550672740202781
2.902716,0.3622283572683882,0.14172027022306907,0.16870372422104538,0.6726523517125027
2.905017,0.3703052042547023,0.14645383810581175,0.17266793094862382,0.6894269733091378
2.907319,0.3788967825670265,0.15057105099182808,0.17692804581280389,0.7063958793716585
2.909621,0.386187719153034,0.15517422683388934,0.18122953970096406,0.7225914856878874
2.911922,0.3927323680184914,0.15995254180070348,0.1858433008747412,0.7385282106939361
2.9142240000000004,0.40197826581303203,0.16475154627950767,0.1905537734882856,0.7572835855808253
2.916525,0.40931609529526497,0.1698863944645686,0.1956717813728896,0.7748742711327231
2.918827,0.4169291024708524,0.17505829131063494,0.20059925328660855,0.7925866470680959
2.921129,0.42433054634718975,0.18013155211116744,0.20537131328468156,0.8098334117430387
2.92343,0.431220530494928,0.18536984785617855,0.21035748567427925,0.8269478640253858
2.925732,0.4382839093054535,0.1907293937644801,0.2156958609191491,0.8447091639890827
2.928034,0.4447187779022279,0.19669567164067533,0.22141530810578888,0.8628297576486921
2.930335,0.4506530920951069,0.2016351723404351,0.225860666274996,0.878148930710538
2.932637,0.4578538779968979,0.2091430594356085,0.2327950208517481,0.8997919582842545
2.9349380000000003,0.4635271914185372,0.21510645040315401,0.2383046860098377,0.9169383278315288
2.93724,0.4694458746460076,0.22102894349816105,0.2439216479394106,0.9343964660835792
2.939542,0.4751595377690502,0.2278478217289223,0.24986771745505745,0.9528750769530301
2.941843,0.4785674517389271,0.2342447301453752,0.25582774036251155,0.9686399222468138
2.944145,0.4849808731971178,0.24057379620855845,0.26149281743624725,0.9870474868419234
2.946447,0.4915767770886821,0.24659636880342425,0.2670130679260528,1.005186213818159
2.948748,0.4938330887698582,0.2523230332616884,0.27311647396311217,1.0192725959946591
2.95105,0.5003541094317911,0.2591140047088352,0.2787988724887465,1.0382669866293728
2.953351,0.5050870203531561,0.26489840734009484,0.28440476793516195,1.054390195628413
2.955653,0.5100772969375261,0.2689737600506895,0.2882530171653079,1.0673040741535236
2.957955,0.5134917541022253,0.2764686560569389,0.29468793654564945,1.0846483467048136
2.960256,0.518488210370594,0.2812666982328599,0.2997491685601412,1.0995040771635949
2.962558,0.5214733612527944,0.28612199743033456,0.3032774520816041,1.1108728107647332
2.96486,0.5259616293899753,0.29310591060557445,0.30960026317604616,1.128667803171596
2.967161,0.5291936041213006,0.29814597195663456,0.3148987028512609,1.142238278929196
2.969463,0.531650573777023,0.3040241991190117,0.31964959218590216,1.155324365081937
2.971764,0.5359327312773056,0.3089348307322738,0.32473632522680024,1.1696038872363796
2.974066,0.5400291347468034,0.3138406508311195,0.3298884948637598,1.1837582804416829
2.976368,0.5432367542529575,0.3188552111557733,0.33397347060318705,1.1960654360119178
2.978669,0.546904941972427,0.3238649599660108,0.33830094666919514,1.2090708486076331
2.980971,0.5507203515753952,0.3288381412666845,0.3436171889477501,1.2231756817898298
2.983273,0.553608808578557,0.33403409568483233,0.3479287870161845,1.2355716912795738
2.985574,0.5550912057166005,0.33908811042769965,0.35277975585068444,1.2469590719949846
2.987876,0.559703431044579,0.34371871190193376,0.35737667672400464,1.2607988196705175
2.990177,0.5635428323618952,0.3488001522769739,0.3619379923906442,1.2742809770295134
2.992479,0.5656391992807517,0.35399899360377146,0.3663693971680441,1.2860075900525674
2.994781,0.5689089791377162,0.3585757061165432,0.37088500344772896,1.2983696887019882
2.997082,0.5713255990920353,0.3633443980545248,0.375399166273089,1.310069163419649
2.999384,0.5744641515417331,0.36750106535875465,0.3789491016094252,1.3209143185099128
3.001686,0.5779087801047788,0.37287264005309695,0.3838337510448392,1.334615171202715
3.003987,0.5803301256998028,0.3779978652093253,0.3888131873142541,1.3471411782233822
3.006289,0.582389414514667,0.38268861061376297,0.3925781973449983,1.3576562224734283
3.0085900000000003,0.5853342156954641,0.3874808789723844,0.3967820174905078,1.369597112158356
3.010892,0.58794313287539,0.39158894998100974,0.4006062091485723,1.3801382920049718
3.013194,0.5898399323521707,0.3967016651997558,0.4046459566524865,1.391187554204413
3.015495,0.5926276968572357,0.40082609535739655,0.4086067953199735,1.4020605875346055
3.0177970000000003,0.5946738992824556,0.4049375344261134,0.4118988334835968,1.4115102671921658
3.020098,0.596649944118749,0.4095820892921548,0.4157408277450016,1.4219728611559057
3.0224,0.5974751136879887,0.414101063631931,0.4187003902624593,1.4302765675823792
3.024702,0.5974932892291613,0.41803110860715387,0.42170373756110535,1.4372281353974206
3.027003,0.5982617511099421,0.4220646011423268,0.4252387572027511,1.4455651094550201
3.029305,0.6016293153784156,0.4257434850650195,0.4275949558124065,1.4549677562558416
3.031607,0.6028968776197979,0.4295455437567691,0.43075371502669857,1.4631961364032655
3.0339080000000003,0.6032509371618417,0.4339812788971436,0.43375032620516185,1.4709825422641472
3.03621,0.6035522876344847,0.4369586440179417,0.4357345947504384,1.4762455264028649
3.038511,0.6027278450868923,0.4407741749500568,0.4380402724587229,1.4815422924956718
3.040813,0.6038765392890053,0.4443380636782002,0.4407602215582497,1.4889748245254553
3.043115,0.6035446539071921,0.4474968228924924,0.4426564393897082,1.4936979161893928
3.045416,0.6024606646316537,0.4506065046597384,0.4445776770961314,1.4976448463875234
3.047718,0.6015457078890213,0.4538504276791988,0.4454538538713371,1.5008499894395568
3.05002,0.6004588105268952,0.4569846481699677,0.4476387625677728,1.5050822212646358
3.052321,0.5991483540083452,0.4602550345187177,0.4485587241241668,1.5079621126512297
3.054623,0.5975245511599783,0.4619717828624487,0.450210517023278,1.5097068510457048
3.056924,0.5938178312932225,0.4652859539923869,0.4503072284630453,1.5094110137486547
3.059226,0.5926386021819393,0.4677051834408957,0.4513123538246076,1.5116561394474426
3.061528,0.5907490729216278,0.4706700386242114,0.45260232083961405,1.514021432385453
3.063829,0.587548723631943,0.4725614449412536,0.4532432145598633,1.5133533831330601
3.066131,0.5856152095619936,0.474586130207627,0.4535848320834197,1.5137861718530403
3.068433,0.5817041966124571,0.4764784988275525,0.4537667073283553,1.5119494027683649
3.070734,0.5784845812491292,0.4780220326522972,0.4537801795687209,1.5102867934701472
3.073036,0.5749221751792846,0.4794828084290818,0.4537811418716041,1.5081861254799702
3.075337,0.5715277111098754,0.4809878501384962,0.4537811418716041,1.506296703119976
3.077639,0.567910051394866,0.4817600982023102,0.4535294996676324,1.5031996492648083
3.079941,0.5628427105159236,0.4824250494946409,0.4524935806138058,1.4977613406243702
3.082242,0.5592272318658548,0.482930258508351,0.4525291858204864,1.494686676194692
3.084544,0.5549403487248673,0.4843996950110849,0.4519580590592732,1.4912981027952257
3.086846,0.5508690275021877,0.4843871850736026,0.4511251859138141,1.4863813984896044
3.089147,0.5460732292083653,0.4843660144101709,0.45007242655953056,1.4805116701780667
3.0914490000000003,0.5414508255773303,0.4831900802868305,0.4485110901314456,1.4731519959956063
3.09375,0.5351457303445286,0.4830644997605654,0.4476103746327167,1.4658206047378106
3.096052,0.5311736475766519,0.4817663531710514,0.4458301142986907,1.458770115046394
3.098354,0.5262651609275589,0.4817235306927463,0.4447682130670163,1.4527569046873214
3.100655,0.5209230058660858,0.4803546548413129,0.4428609287524004,1.444138589459799
3.102957,0.515561948241793,0.4785272416660072,0.44161426536714055,1.4357034552749408
3.105259,0.5097446845340662,0.4776505837393598,0.4393870153438415,1.4267822836172674
3.10756,0.5041066316623019,0.4759280615783293,0.437328649476554,1.4173633427171852
3.109862,0.4982435655908199,0.4736397053219434,0.4356191184044476,1.407502389317211
3.112163,0.4922303695492515,0.4722275258407634,0.4339687689596612,1.398426664349676
3.114465,0.4862244437241523,0.4698583361421839,0.4320297286498978,1.3881125085162342
3.116767,0.4800055005565093,0.4670436002086563,0.4292116246562788,1.3762607254214445
3.119068,0.4735157418253934,0.4653566832543062,0.4265518194869556,1.3654242445666551
3.12137,0.4673498712379745,0.4621791591337906,0.4247268120688581,1.3542558424406232
3.123672,0.4607783225715816,0.4598022710121451,0.4225770274276614,1.3431576210113882
3.125973,0.4540584614892196,0.4572478380085386,0.4192407233314083,1.3305470228291667
3.128275,0.4474396564157777,0.4542762467050401,0.41741812167051895,1.3191340247913366
3.130576,0.4407005292597726,0.4512214162021398,0.4145721108932855,1.306494056355198
3.132878,0.4337451131638128,0.44825223065584935,0.4118329157360936,1.2938302595557558
3.13518,0.4268231400636106,0.4453239429820974,0.40910093785052615,1.2812480208962342
3.137481,0.41980629063848707,0.4424023914285282,0.406377620690908,1.2685863027579232
3.139783,0.4131104212704729,0.439499123629741,0.4037433165479911,1.2563528614482051
3.142085,0.4060612193820621,0.435579663986234,0.4006119829658719,1.242252866334168
3.144386,0.3987575599172337,0.4325435983895572,0.3971279653770388,1.2284291236838296
3.146688,0.3917530698601076,0.42961915992733823,0.3945143507461119,1.2158865805335577
3.148989,0.3851455336221927,0.4262063527518663,0.3920243920356837,1.2033762784097426
3.151291,0.3775012645157885,0.42300044069629456,0.3881525663848979,1.188654271596981
3.153593,0.3706254572901648,0.4191329454084835,0.385671268400419,1.1754296710990673
3.155894,0.3635395408085852,0.4161882985857161,0.3820284708358485,1.1617563102301498
3.158196,0.35633984543926445,0.41238623989396656,0.3793027479190222,1.148028833252253
3.160498,0.34922084947275045,0.4084456095870279,0.3758726192916515,1.13353907835143
3.162799,0.3422966953076076,0.40521852686802456,0.37277256055323815,1.1202877827288704
3.165101,0.3348218222449327,0.4011277773112977,0.3697773928290998,1.10572699238533
3.167402,0.3281194096820964,0.3979444793734826,0.36568760557525626,1.091751494630835
3.1697040000000003,0.32098550977182083,0.3939417805305738,0.3626635687646202,1.0775908590670151
3.172006,0.3130860560673521,0.3897976231638263,0.3592801118270876,1.062163791058266
3.174307,0.3064345350197994,0.3861302868757328,0.3553928893301697,1.047957711225702
3.176609,0.29977210864754306,0.3816358512594795,0.3523573048849345,1.033765264791957
3.1789110000000003,0.2928712191751012,0.3779362778247968,0.3489223647431476,1.0197298617430457
3.181212,0.2856944249876581,0.373791158155166,0.3454773204210865,1.0049629035639107
3.183514,0.27900946094434764,0.3698351310020953,0.34161704240489976,0.9904616343513428
3.1858150000000003,0.2719471726662924,0.36544702985444205,0.3378323051650489,0.9752265076857832
3.188117,0.26527275043686216,0.3611320637259162,0.33458453293405543,0.9609893470968338
3.190419,0.25833514637125143,0.3573901489643702,0.3300203303587661,0.9457456256943876
3.19272,0.25184756870507624,0.35268448786524204,0.3263164265611088,0.930848483131427
3.1950220000000003,0.24486125418912286,0.3481058507467038,0.32297194289034803,0.9159390478261746
3.197323,0.23848927296480585,0.3434689943037285,0.3195326723855864,0.9014909396541206
3.199625,0.23215218877954044,0.33887014882464184,0.3151503450552327,0.886172682659415
3.201927,0.22560899395737685,0.3343925535088457,0.3108820506165449,0.8708835980827675
3.204228,0.21890839894865788,0.3299515257026132,0.3066402195071468,0.8555001441584178
3.20653,0.2127836050842893,0.32546093929789305,0.3028347927553057,0.8410793371374881
3.208832,0.20607428581580745,0.32015095198807925,0.29882006512635634,0.8250453029302431
3.211133,0.20032936076194785,0.31592163081616337,0.29444736082483514,0.8106983524029464
3.213435,0.19438486826601226,0.3106164550207659,0.2900082576243692,0.7950095809111474
3.215736,0.18843019746701992,0.3057861756982559,0.2859997849641609,0.7802161581294367
3.218038,0.18248788603602498,0.30147602108414645,0.28107086959611705,0.7650347767162885
3.22034,0.17692871501295016,0.295993300406788,0.276958468224517,0.7498804836442552
3.222641,0.1712168694440248,0.29152917733135736,0.2724731744856547,0.7352192212610369
3.224943,0.16550502387509944,0.2862504648652495,0.2673580535097005,0.7191135422500494
3.227245,0.15992731380002848,0.2812002993339151,0.26283282420118304,0.7039604373351266
3.229546,0.1546167841801958,0.2765552633164321,0.2578735962923166,0.6890456437889445
3.231848,0.14932261254741855,0.2716980395131909,0.2534537391495157,0.6744743912101252
3.234149,0.14407896891910132,0.2665487567848812,0.2486845660600926,0.6593122917640749
3.236451,0.13887022232983567,0.2616944198902897,0.24380905850206944,0.6443737007221948
3.238753,0.1341042319235364,0.2567924490029769,0.2387637044851515,0.6296603854116648
3.241054,0.12929134862101166,0.2512678681501969,0.2336750468384869,0.6142342636096954
3.2433560000000003,0.12440976177285415,0.2466695038225518,0.22922776406351325,0.6003070296589192
3.245658,0.11984115774369015,0.24169584137043645,0.22405201800591387,0.5855890171200405
3.247959,0.11541286889237926,0.2366519308078433,0.21883826098442585,0.5709030606846484
3.250261,0.11110381159116106,0.23214306064834125,0.21368127983304994,0.5569281520725522
3.252562,0.107153902983515,0.22672481426416105,0.20882886754422494,0.5427075847919011
3.254864,0.10323743737162663,0.22165203461507013,0.2044927307522676,0.5293822027389643
3.257166,0.09952053920181426,0.2173255208519453,0.19953350284340116,0.5163795628971607
3.259467,0.0954633949012494,0.21220751296734136,0.19459833250661607,0.5022692403752068
3.261769,0.09188244977940864,0.2072045002772867,0.18972138149426807,0.4888083315509634
3.264071,0.08852651785728564,0.20265617569957106,0.1849786717341345,0.4761613652909911
3.266372,0.08527600407396416,0.1980318291940781,0.18006659666654756,0.4633744299345898
3.2686740000000003,0.08204293881016843,0.19325495768158887,0.17559429401660928,0.4508921905083666
3.270975,0.07905560686302733,0.18845835895999288,0.17099015587166472,0.43850412169468495
3.273277,0.07597339859096479,0.1836612790869552,0.16629989161866865,0.4259345692965886
3.275579,0.07336884354092023,0.1796908173906356,0.1617145183799476,0.41477417931150345
3.27788,0.07057235477609222,0.1751578896590521,0.1574885652681232,0.4032188097032675
3.280182,0.06812374586930922,0.1705744410260976,0.15304898091621566,0.3917471678116224
3.282484,0.06581945075943728,0.16612186558526607,0.14869840958100936,0.3806397259257127
3.284785,0.06350243277074448,0.16211050601640803,0.1445402988224546,0.3701532376096071
3.287087,0.06147695046246138,0.15763146724628688,0.14063960408517112,0.3597480217939194
3.289388,0.05952162574310482,0.15404255864317878,0.1364073960046055,0.3499715803908891
3.29169,0.05783130041404591,0.15020489474474868,0.13281078897843138,0.34084698413722603
3.293992,0.056228944704262734,0.14591350503686273,0.12896879471702655,0.33111124445815204
3.296293,0.05484360495608133,0.1424819329551672,0.12531204376064886,0.3226375816718974
3.298595,0.05379851133865242,0.13867746850620946,0.12176355187863755,0.3142395317234994
3.300897,0.05294571494683043,0.1352252069125239,0.11829685574170312,0.3064677776010575
3.3031980000000005,0.05263600372524803,0.1317633222900058,0.11495333437382566,0.2993526603890795
3.3055,0.0527574163402815,0.12838227110968126,0.11203178282025647,0.2931714702702192
3.307801,0.05345353956719502,0.12494733096789434,0.1087185739932016,0.28711944452829097
3.310103,0.05515767830754517,0.1223086964620028,0.1058735255188514,0.2833399002883993
3.3124050000000005,0.05813919408151106,0.11897864733449093,0.10318918162600517,0.2803070230420072
3.314706,0.06283975253958868,0.11676390724867425,0.10111060739816938,0.28071426718643233
3.317008,0.06860539771038515,0.11416809522108767,0.09880348623556,0.28157697916703284
3.31931,0.07450663241832979,0.11232384174532506,0.09723012102143433,0.2840605951850892
3.321611,0.07919010586770511,0.11055272328869,0.0959449655208442,0.2856877946772393
3.323913,0.08146859170911185,0.10923436833862753,0.09498506839479502,0.2856880284425344
3.326214,0.07904688260326442,0.10801897979707356,0.09480752351283407,0.281873385913172
3.3285160000000005,0.07220015624351714,0.10791360763135686,0.09485467635411368,0.2749684402289877
3.330818,0.06217380071102181,0.10728041233417357,0.09608257483315,0.2655367878783453
3.3331190000000004,0.05149894186948537,0.10807575566718572,0.09731913403813562,0.2568938315748067
3.335421,0.04275759709789829,0.10877679331763868,0.0985951476613348,0.25012953807687177
3.3377230000000004,0.036983591178162384,0.10997293580152748,0.09985095292398558,0.24680747990367544
3.340024,0.033572405610874434,0.1105796677694212,0.10107933255446352,0.2452314059347592
3.3423260000000004,0.031242664743360744,0.1113918514028904,0.10168606452235723,0.2443205806686084
3.344627,0.029855870951885518,0.11148230787391657,0.10175631263283502,0.2430944914586371
3.3469290000000003,0.02870644972812545,0.11078608173787988,0.10111301315537753,0.2406055446213829
3.349231,0.027723516461507097,0.10949803932864,0.09938712293425556,0.2366086787244027
3.351532,0.027047749840706983,0.10759316077123217,0.09728304768001347,0.2319239582919526
3.3538339999999995,0.026390885782726446,0.1054202808608372,0.09505194844518143,0.2268631150887451
3.356135,0.02592232033129484,0.10291925566725148,0.09292670252750768,0.221768278526054
3.3584370000000003,0.025283631814486986,0.10109809746068704,0.0915097115319113,0.21789144080708533
3.360739,0.02476999102094714,0.09957621545081563,0.09095879313124652,0.21530499960300925
3.3630400000000003,0.024318510578217857,0.0988924992522613,0.09140963203205253,0.2146206418625317
3.365342,0.02392700942135841,0.09906571377124762,0.0927053728643585,0.21569809605696447
3.3676440000000003,0.02339373904335207,0.10020989189944056,0.09449140701568404,0.21809503795847668
3.3699449999999995,0.023023321514252924,0.1014517437702841,0.09639436096732536,0.2208694262518624
3.372247,0.022559481703526216,0.10320650307790376,0.09820589614505723,0.2239718809264872
3.3745480000000003,0.02216907107913712,0.10514939259920024,0.09982256498892947,0.2271410286672669
