Wavelength,d_NH3_CH3OH_50_10K_I10m_Baselined,H2O_CH4_10_0.6_a_V3,CO_CH3OH_10K,all
2.85208,0.0013785879202879445,0.2409361295773761,0.0036307463652092173,0.2459454638628733
2.854382,0.0014378552477858726,0.2509378646262282,0.0039061651224054725,0.2562818849964196
2.8566830000000003,0.00149463235143935,0.2612349402230321,0.004210968520966246,0.2669405410954377
2.858985,0.0015548957684750587,0.271523051013996,0.004557607680113793,0.2776355544625849
2.861286,0.0016211357227374488,0.28249049486972605,0.0049435923760036615,0.28905522296846714
2.863588,0.0016938502589954115,0.2939649483001863,0.005364938250484732,0.3010237368096665
2.8658900000000003,0.0017730393772489462,0.3047999122473916,0.005817660945405881,0.3123906125700464
2.868191,0.0018621893908802832,0.3165323528681369,0.00629678001307821,0.3246913222720954
2.870493,0.0019627944341960944,0.3284052421137093,0.006796816961043922,0.3371648535089493
2.872795,0.002065889701356356,0.3401167648541613,0.007310301117769671,0.34949295567328725
2.875096,0.0021595221179077045,0.3519169395634757,0.00782727158787765,0.36190373326926106
2.877398,0.0022327346989345575,0.3640996126552977,0.008340257699834508,0.3746726050540667
2.879699,0.002296982474121387,0.3762130575242441,0.008854737946098036,0.3873647779444635
2.882001,0.0023667087417660088,0.38822241103649213,0.00938067322204604,0.3999697930003043
2.884303,0.002450380262939554,0.3994065043666896,0.009918063527678513,0.4117749481573076
2.886604,0.002542020500415343,0.4123641351189047,0.010453461654235429,0.4253596172735555
2.888906,0.0026326646483533504,0.4250622845465281,0.010970432124343408,0.4386653813192248
2.891208,0.002717332259064676,0.4369491190456294,0.011462998400775769,0.4511294497054698
2.893509,0.0027905448400915287,0.4488299770075039,0.011934646796914744,0.4635551686445102
2.895811,0.0028508082571272373,0.4607292626258275,0.012387369491835892,0.4759674403747906
2.898112,0.002910573629394056,0.4729069552699606,0.012818676261694766,0.4886362051610494
2.900414,0.00299075883718537,0.4842793095227984,0.013222092524495792,0.5004921608844795
2.902716,0.003093854104345632,0.4962876669455088,0.013595626101163407,0.5129771471510178
2.905017,0.0031720471330613864,0.5073537236654792,0.013948739842306523,0.524474510640847
2.907319,0.0031685608196791552,0.519125011778198,0.014293386822378509,0.5365869594202557
2.909621,0.003097340417727863,0.5291142957078278,0.014632555309992704,0.5468441914355484
2.911922,0.003069449910670015,0.538081093726926,0.014954292230695743,0.5561048358682918
2.9142240000000004,0.003191968923816993,0.5507488624236471,0.015246644510034263,0.5691874758574983
2.916525,0.003458920919942115,0.5608023941284637,0.015499153207861568,0.5797604682562674
2.918827,0.0037876304674096155,0.5712329457233303,0.015699865249724304,0.5907204414404642
2.921129,0.004118332193952678,0.5813736352627027,0.015839815829782434,0.6013317832864378
2.92343,0.004505312979380328,0.5908135758122466,0.01592199321664931,0.6112408820082762
2.925732,0.005037722837323901,0.6004910837165511,0.015951377858013826,0.6214801844118889
2.928034,0.005795746975574714,0.6093074722154446,0.015932950201564898,0.6310361693925842
2.930335,0.006842637079781815,0.6174380530675765,0.015870694605453633,0.640151384752812
2.932637,0.008237162432674245,0.6273038218945215,0.015768595427831145,0.6513095797550269
2.9349380000000003,0.009982809347634231,0.6350768066025899,0.0156341233402308,0.6606937392904549
2.93724,0.01202529094485275,0.6431859715296595,0.015478733372337076,0.6706899958468493
2.939542,0.014298367270067409,0.6510142392070749,0.015313382509065544,0.680625988986208
2.941843,0.01664664835538449,0.6556834089154201,0.015146039466718454,0.6874760967375231
2.944145,0.01887390456186125,0.6644704127729492,0.014983676872060262,0.6983279942068706
2.946447,0.02082175765299064,0.673507435104461,0.014829282993704312,0.7091584757511559
2.948748,0.022448371868185886,0.6765987989849622,0.014670904757197246,0.7137180756103454
2.95105,0.023738307819611372,0.6855332240940827,0.01449658908808569,0.7237681210017798
2.953351,0.0247084990294094,0.6920177669850325,0.014305837941600763,0.7310321039560427
2.955653,0.025427675675686774,0.6988549255723565,0.014120067242804738,0.7384026684908481
2.957955,0.025966062070857037,0.7035330600865417,0.013959696827222107,0.7434588189846209
2.960256,0.026348560453364672,0.7103786854349369,0.013826718873928437,0.7505539647622299
2.962558,0.026573178644134127,0.7144686290770628,0.01370868226370147,0.7547504899848984
2.96486,0.02663095183732539,0.7206179878385496,0.013594131966856734,0.7608430716427318
2.967161,0.026488012988653914,0.7250461038787519,0.01347758949093644,0.7650117063583423
2.969463,0.026104020471839608,0.7284123884716804,0.013354572433020571,0.7678709813765405
2.971764,0.02545706031705129,0.7342793558492063,0.01322508079310913,0.7729614969593668
2.974066,0.024568548449351264,0.7398918223498295,0.01309658524273547,0.7775569560419163
2.976368,0.023467869510104024,0.7442865693905163,0.012978050587739614,0.7807324894883599
2.978669,0.022213792782038614,0.7493123391533868,0.012866488559508218,0.7843926204949336
2.980971,0.0208994526369375,0.7545398170476578,0.012749448038819037,0.7881887177234144
2.983273,0.01961549322273869,0.7584972807812591,0.012614477906449805,0.7907272519104475
2.985574,0.01842267600124677,0.7605283073487931,0.012459087938556077,0.791410071288596
2.987876,0.017369809359812985,0.7668474993764713,0.012284274224675632,0.79650158296096
2.990177,0.016489266208415194,0.7721078482254892,0.012093025033421812,0.8006901394673261
2.992479,0.015767101293524474,0.7749800724076786,0.01189330908109686,0.8026404827822999
2.994781,0.01517741628715853,0.7794599851038455,0.01169309508400302,0.8063304964750071
2.997082,0.014695806995641754,0.7827709867274273,0.011495869355522518,0.8089626630785915
2.999384,0.014298865314836304,0.7870711052620248,0.011294161224122008,0.8126641318009831
3.001686,0.01396417923014212,0.7917905774920281,0.011080998063037022,0.8168357547852071
3.003987,0.013687266338639191,0.7951080536976053,0.010855383782729782,0.8196507038189742
3.006289,0.013475597311860876,0.7979294773133679,0.010621302741351408,0.8220263773665802
3.0085900000000003,0.013334152597496077,0.8019641379861471,0.010382241252284137,0.8256805318359273
3.010892,0.0132519752106292,0.8055386052924718,0.010137203225990179,0.8289277837290911
3.013194,0.013213127718655768,0.8081374028965407,0.009886686707238431,0.8312372173224349
3.015495,0.013205159002353523,0.8119569082291591,0.009629197561722223,0.8347912647932348
3.0177970000000003,0.01321860621111356,0.8147604022332419,0.009362743610365992,0.8373417520547215
3.020098,0.013245998673402516,0.8174677735969287,0.009085332674094176,0.8397991049444253
3.0224,0.013277375493842595,0.8185983352223094,0.0088009491110579,0.8406766598272098
3.024702,0.013299289463673765,0.8186232374607539,0.008518059682328294,0.840440586606756
3.027003,0.013300285553211545,0.8196761041021876,0.008244633104207597,0.8412210227596068
3.029305,0.01328185789676261,0.8242899908411859,0.007978179152851365,0.8455500278908001
3.031607,0.0132519752106292,0.826026672950306,0.007709733022419573,0.8469883811833547
3.0339080000000003,0.013219104255882451,0.826511768555205,0.007435310354761099,0.8471661831658486
3.03621,0.013194202017437942,0.8269246476686148,0.007165868134791527,0.8472847178208442
3.038511,0.013187727435442371,0.8257950821327722,0.006917343795115338,0.8459001533633299
3.040813,0.013205657047122413,0.827368903602465,0.0066927256043458816,0.8472672862539332
3.043115,0.013244504539095849,0.8269141887284682,0.006479064398492005,0.8466377576660561
3.045416,0.013300285553211545,0.8254290192276378,0.006261418834487008,0.8449907236153363
3.047718,0.013367023552242823,0.8241754405443413,0.006043773270482011,0.8435862373670662
3.05002,0.013439240043731895,0.8226862866853597,0.005842065139081498,0.841967591868173
3.052321,0.013510958490452077,0.8208908352935108,0.005669741649045506,0.8400715354330084
3.054623,0.013587159340092272,0.8186660693108784,0.005517339949765118,0.8377705686007357
3.056924,0.01367381912987916,0.8135875068025055,0.005367926519098072,0.8326292524514828
3.059226,0.0137729300388883,0.8119718495722259,0.005214528730279906,0.8309593083413942
3.061528,0.013874531171741887,0.8093830128635348,0.0050720879263773215,0.8283296319616541
3.063829,0.01396766554352435,0.804998226718226,0.004959031763839257,0.8239249240255896
3.066131,0.014042870303626763,0.8023491265924991,0.00487386610835904,0.8212658630044849
3.068433,0.014096161093898009,0.79699066292401,0.004794676990105507,0.8158815010080135
3.070734,0.014123055511418075,0.7925794804059499,0.004700048484016377,0.8114025844013845
3.073036,0.014122557466649187,0.7876986416708265,0.004592470813936104,0.8064136699514117
3.075337,0.014094666959591337,0.7830478996189302,0.004485889233393611,0.8016284558119152
3.077639,0.014041874214088982,0.7780913580789354,0.0043912607273044815,0.7965244930203288
3.079941,0.013973144035982142,0.7711486140006066,0.004301612668904255,0.7894233707054931
3.082242,0.013898935365417508,0.7661950607292252,0.0042054900285084535,0.7842994861231511
3.084544,0.013828711053003996,0.7603216187697036,0.004096916268890401,0.778247246091598
3.086846,0.01376994177027496,0.7547435173581338,0.0039734011662056435,0.7724868602946143
3.089147,0.013729600143994856,0.7481728127221662,0.003836438854760851,0.7657388517209218
3.0914490000000003,0.013718145114310382,0.7418396754409591,0.003688519558400476,0.7592463401136698
3.09375,0.013746035621368231,0.7332010889245592,0.0035371139486578686,0.7504842384945852
3.096052,0.013820742336701755,0.7277589537348964,0.003387700517990823,0.7449673965895891
3.098354,0.013927323917244246,0.7210338552205728,0.003239781221630447,0.7382009603594476
3.100655,0.014042870303626763,0.7137145892969631,0.003088873656656731,0.7308463332572466
3.102957,0.014143475346942574,0.7063694250453711,0.0029339817335318928,0.7234468821258456
3.105259,0.01420373876397828,0.6983992146088219,0.002778591765638165,0.7153815451384384
3.10756,0.014198260271520487,0.6906745402433356,0.002625692021588888,0.7074984925364449
3.109862,0.014126541824800309,0.6826415761659065,0.0024777727252285127,0.6992458907159353
3.112163,0.014013485662262242,0.6744029195989255,0.0023338377870192584,0.690750243048207
3.114465,0.013885986201426365,0.6661742239273224,0.0021933891621922354,0.6822535992909411
3.116767,0.013756494561514922,0.6576536740211496,0.002056426850747443,0.673466595433412
3.119068,0.013631983369292385,0.6487620807621538,0.0019249430317604425,0.6643190071632067
3.12137,0.013518927206754322,0.6403142453922389,0.0017999337947690141,0.6556331063937623
3.123672,0.0134238006558963,0.6313105920602428,0.0016804030502353775,0.6464147957663745
3.125973,0.013354572433020571,0.6221037364625395,0.0015638605743150814,0.6370221694698751
3.128275,0.013311740582896015,0.6130353373105875,0.0014508044117770163,0.6277978823052605
3.130576,0.01328185789676261,0.6038020853401329,0.0013472110998478644,0.6184311543367433
3.132878,0.01325147716586031,0.5942724967321887,0.0012580610862165274,0.6087820349842655
3.13518,0.013217112076806887,0.5847887282429824,0.0011808641470385534,0.5991867044668279
3.137481,0.013181750898215688,0.5751749700690958,0.0011091457003183712,0.5894658666676299
3.139783,0.013148381898700049,0.5660009854261391,0.0010359331192915189,0.5801853004441306
3.142085,0.01311351876487774,0.5563429012678213,0.0009627205382646664,0.5704191405709637
3.144386,0.013073177138597635,0.5463361857712804,0.0008934923153889352,0.5603028552252671
3.146688,0.013022874616939729,0.536739361119536,0.0008312367192776659,0.5505934724557534
3.148989,0.012960120976059572,0.5276864013554197,0.0007739615708552981,0.5414204839023345
3.151291,0.012884418171188265,0.5172130179104287,0.0007196746910462714,0.5308171107726632
3.153593,0.0127967622918636,0.5077925011068714,0.0006673799903128055,0.5212566433890478
3.155894,0.012704125964850032,0.4980841144268957,0.0006205637820371311,0.5114088041737829
3.158196,0.012610991593067573,0.4882198397342573,0.0005822143348325891,0.5014130456621575
3.160498,0.012517857221285114,0.4784661309803124,0.0005493433800858392,0.4915333315816834
3.162799,0.012418746312275972,0.4689793742224928,0.0005169704701079792,0.4819150910048767
3.165101,0.01231017255265792,0.4587380796398047,0.00048061320197899794,0.4715288653944416
3.167402,0.012190143763355392,0.449555130191008,0.00044076962046778564,0.4621860435748311
3.1697040000000003,0.012057165810061722,0.4397810016015387,0.00039843581511212254,0.4522366032267126
3.172006,0.011915223050928028,0.4289579907287868,0.00035759614406313014,0.4412308099237779
3.174307,0.011773778336563227,0.4198447675476348,0.00032522323408527013,0.4319437691182833
3.176609,0.011644286696651785,0.4107166030234161,0.0003072936224052246,0.4226681833424731
3.1789110000000003,0.011526748131193709,0.4012617211308054,0.0003043053537918837,0.41309277461579097
3.181212,0.011412197834348973,0.3914288232586071,0.00030828971194300493,0.4031493108048991
3.183514,0.011292667089815337,0.3822697799587172,0.0003127721148630163,0.3938752191633956
3.1858150000000003,0.011169650031899469,0.3725937661887193,0.0003127721148630163,0.38407618833548174
3.188117,0.011049123197828052,0.3634491661871272,0.0003028112194852132,0.3748011006044405
3.190419,0.010935568990521095,0.35394398177285863,0.00028239138396071695,0.3651619421473404
3.19272,0.010830481544285274,0.345055376782476,0.00026147350366733047,0.3561473318304286
3.1950220000000003,0.010735354993427254,0.3354834543691761,0.00025101456352063725,0.34646982392612397
3.197323,0.010648197158871478,0.3267532276153007,0.0002549989216717585,0.3376564236958439
3.199625,0.010567015861542385,0.31807081315923863,0.00026844613043179263,0.32890627515121285
3.201927,0.01048832478805774,0.3091060073192159,0.0002858776973429481,0.31988020980461657
3.204228,0.010417104386106449,0.2999255480942637,0.0003028112194852132,0.3106454636998553
3.20653,0.010362319461528529,0.2915339917832335,0.00031476429393857686,0.3022110755387006
3.208832,0.010330444596319559,0.2823415794838279,0.00031924669685858833,0.29299127077700604
3.211133,0.010316001298021744,0.2744704799562879,0.0003232310550097095,0.28510971230931936
3.213435,0.010309028671257284,0.2663259538506273,0.0003351841294630732,0.2769701666513477
3.215736,0.010305542357875052,0.2581674824914377,0.0003570980992942399,0.268830122948607
3.218038,0.010309526716026174,0.2500259446543903,0.0003790120691254067,0.2607144834395419
3.22034,0.01032546414863066,0.2424093460037532,0.0003899690540409901,0.25312477920642484
3.222641,0.010352358566150728,0.23458356855018225,0.0003909651435787704,0.2453268922599117
3.224943,0.010380249073208576,0.22675779109661126,0.00039694168080545215,0.2375349818506253
3.227245,0.01040266108780863,0.21911579216276075,0.00041885565063661895,0.22993730890120603
3.229546,0.010421088744257569,0.2118398561340445,0.0004497344263078084,0.22271067930460986
3.231848,0.010440014445475394,0.2045863321199283,0.00047364057521453583,0.21549998714061824
3.234149,0.010462924504844342,0.19740203632868786,0.00048061320197899794,0.2083455740355112
3.236451,0.010486332608982178,0.1902655528352608,0.0004771268885967669,0.20122901233283974
3.238753,0.010504760265431113,0.18373568787034197,0.0004731425304456457,0.1947135906662188
3.241054,0.010513725071271136,0.17714157513023635,0.00047513470952120616,0.1881304349110287
3.2433560000000003,0.010510238757888906,0.17045333192881051,0.00048609169443678967,0.1814496623811362
3.245658,0.01049081501190219,0.16419390527339908,0.0005090017538057367,0.17519372203910702
3.247959,0.010462924504844342,0.1581267238987792,0.0005358961713258049,0.16912554457494935
3.250261,0.010439516400706506,0.15222290120835535,0.0005538257830058505,0.16321624339206772
3.252562,0.010432045729173152,0.14681114674959495,0.0005548218725436308,0.15779801435131172
3.254864,0.010437524221630945,0.14144521240957242,0.0005498414248547292,0.1524325780560581
3.257166,0.010448481206546524,0.13635270464767066,0.000555319917312521,0.14735650577152967
3.259467,0.01046093232576878,0.1307940269820876,0.0005777319319125779,0.14183269123976894
3.261769,0.010470395176377692,0.12588778796375072,0.0006016380808193053,0.13695982122094771
3.264071,0.010474877579297704,0.12128983865735685,0.0006091087523526575,0.13237382498900718
3.266372,0.010474877579297704,0.11683632233394108,0.0006006419912815249,0.1279118419045203
3.2686740000000003,0.010472387355453252,0.11240671215943204,0.0005931713197481727,0.12347227083463347
3.270975,0.010470893221146584,0.10831378024869276,0.0006021361255881952,0.11938680959542755
3.273277,0.010468402997302131,0.10409085865327317,0.0006205637820371311,0.11517982543261243
3.275579,0.01046093232576878,0.1005223678841752,0.0006300266326460441,0.11161332684259
3.27788,0.010445492937933185,0.09669090947710324,0.000620065737268241,0.10775646815230468
3.280182,0.010420590699488676,0.09333607991385916,0.0006041283046637559,0.10436079891801163
3.282484,0.010386225610435257,0.0901789741238645,0.0005981517674370742,0.10116335150173683
3.284785,0.010342895715541813,0.08700443676695868,0.0006101048418904378,0.09795743732439093
3.287087,0.010292095149115018,0.08422933131470273,0.0006355051251038358,0.09515693158892158
3.289388,0.010235816090230429,0.0815503485028426,0.0006673799903128055,0.09245354458338582
3.29169,0.0101715683150436,0.07923444032750339,0.0007072235718240176,0.090113232214371
3.293992,0.010094371375865628,0.07703905898623557,0.0007580241382508134,0.08789145450035202
3.296293,0.01000073895931428,0.0751410103719952,0.0008252601820509841,0.08596700951336046
3.298595,0.009895153468309568,0.07370913166143601,0.0009173984642956623,0.08452168359404122
3.300897,0.009785085574384842,0.07254071863361973,0.0010448979251315416,0.0833707021331361
3.3031980000000005,0.009673523546153449,0.07211638449052532,0.0012167233703986445,0.08300663140707741
3.3055,0.009557977159770931,0.07228273144333461,0.0014433337402436645,0.0832840423433492
3.307801,0.009434960101855063,0.07323648717575927,0.0017341918852755134,0.08440563916288985
3.310103,0.009309452820094748,0.07557132105231629,0.0020883017159564125,0.08696907558836743
3.3124050000000005,0.009196894702325572,0.07965628424675335,0.0024937101578329977,0.09134688910691192
3.314706,0.009108740778232014,0.08609650115327191,0.002938464136451905,0.09814370606795583
3.317008,0.00903552819720516,0.09399598923263863,0.0034106105773597704,0.10644212800720357
3.31931,0.00895534298941385,0.10208124801080136,0.0038981964061032288,0.11493478740631845
3.321611,0.008854737946098036,0.10849805681318213,0.00438827245869114,0.1217410672179713
3.323913,0.00874068569402219,0.1116198014245856,0.004862909123443457,0.12522339624205125
3.326214,0.008626633441946346,0.1083018271742394,0.005303180699142353,0.1222316413153281
3.3285160000000005,0.008518059682328294,0.09892115395219336,0.0056881693054944395,0.1131273829400161
3.330818,0.008410980057016909,0.08518408313666515,0.005995960972668557,0.0995910241663506
3.3331190000000004,0.008302406297398854,0.07055850045343691,0.00620364564129575,0.08506455239213151
3.335421,0.008196820806394143,0.0585820178959354,0.006306242863687121,0.07308508156601666
3.3377230000000004,0.008105678613687245,0.050671074786884186,0.0063112233113760225,0.06508797671194748
3.340024,0.008038442569887075,0.045997422675618994,0.006230540058815818,0.06026640530432189
3.3423260000000004,0.007995112674993633,0.04280545375180201,0.006111009314282182,0.05691157574107782
3.344627,0.007971704570855795,0.040905412958486084,0.006007914047121919,0.054885031576463794
3.3469290000000003,0.007966724123166893,0.03933059539925541,0.005963588062690696,0.053260907585113
3.349231,0.007982163511002487,0.037983882344176434,0.005989984435441874,0.0519560302906208
3.351532,0.00802051295820703,0.037058017118809634,0.006092581657833245,0.051171111734849915
3.3538339999999995,0.008079282240936066,0.03615805022142513,0.006274866043247041,0.05051219850560824
