Wavelength,H2O_NH3_CO2_CH4_10_1_1_1_72K_b,H2O_40K,H2O_CH3OH_CO_NH3_100K_NASA,all
2.85208,0.1531125330306604,0.02341425534651309,0.07349577277650976,0.2500225611536833
2.854382,0.16183468267597936,0.02430152253406781,0.07858091053998259,0.26471711575002976
2.8566830000000003,0.1697788688637816,0.025298713804705275,0.08379290206420201,0.2788704847326889
2.858985,0.17925384213690895,0.02622812033098291,0.0889264839804009,0.2944084464482928
2.861286,0.1876139782344293,0.027210945917964836,0.094878122826139,0.3097030469785331
2.863588,0.19683481068359698,0.028224311884273726,0.09985138955651243,0.3249105121243832
2.8658900000000003,0.20627321693169426,0.029317167966809925,0.10479369198308157,0.3403840768815857
2.868191,0.2162541864136764,0.030344580379359793,0.10973649383390564,0.3563352606269418
2.870493,0.2262529823203608,0.031356669396010416,0.1149320043577131,0.3725416560740843
2.872795,0.2363902758343469,0.03244665234181551,0.11927949249668685,0.3881164206728493
2.875096,0.2468927825108217,0.03357430530253958,0.12427723101555074,0.4047443188289121
2.877398,0.2572663904240653,0.0346861028050068,0.12865618288258374,0.4206086761116559
2.879699,0.2686382781206322,0.035839294758896266,0.13316298735887316,0.4376405602384016
2.882001,0.2797450548857304,0.036995679086931424,0.13746502789065027,0.4542057618633121
2.884303,0.29118961954454475,0.038107476589398635,0.1414893885366986,0.470786484670642
2.886604,0.3022771986215021,0.03924130147347101,0.14566907012602326,0.4871875702209964
2.888906,0.3141294856094028,0.04034267055372903,0.15000007726458506,0.5044722334277169
2.891208,0.32642469068798124,0.04144829613284794,0.15397549433365235,0.5218484811544816
2.893509,0.33726361399473354,0.04258233384186335,0.15788898279511115,0.5377349306317081
2.895811,0.34964795119682296,0.043712753526847004,0.16181995110549166,0.5551806558291617
2.898112,0.3619440704510272,0.0449388380237294,0.16648856904037124,0.5733714775151278
2.900414,0.3739668511931309,0.04604095199128806,0.17045050165455605,0.5904583048389751
2.902716,0.3858058826344581,0.047051231995922815,0.17511062937710226,0.6079677440074832
2.905017,0.39834334425386136,0.04811099379981552,0.17922538581328884,0.6256797238669658
2.907319,0.40991360806121696,0.04917437362773999,0.1836472881662439,0.6427352698552008
2.909621,0.422425472763099,0.05015070805395904,0.18811214100512105,0.6606883218221791
2.911922,0.4349135688987115,0.05127335962852155,0.19290112018543346,0.6790880487126665
2.9142240000000004,0.44743594662028985,0.05224554396835123,0.1977904836409823,0.6974719742296234
2.916525,0.460512771858888,0.05322517718118749,0.20310285944043824,0.7168408084805137
2.918827,0.4735484591943273,0.05421353621668858,0.20821746323495066,0.7359794586459665
2.921129,0.4868675409737501,0.05515826613886544,0.21317075299512772,0.7551965601077433
2.92343,0.5023079672927351,0.05603223176747985,0.2183462865487389,0.7766864856089538
2.925732,0.5161792111501136,0.05685320398527605,0.22388739865694268,0.7969198137923323
2.928034,0.5317896741354888,0.057813682953238237,0.22982405477503354,0.8194274118637606
2.930335,0.5452925052156883,0.058393524510564426,0.2344382354661282,0.8381242651923809
2.932637,0.5576137642996007,0.05938358614560989,0.24163593782786166,0.8586332882730723
2.9349380000000003,0.569381490042119,0.06027755731887052,0.24735484497081264,0.8770138923318022
2.93724,0.5807341800505452,0.06109203837590382,0.2531851237226081,0.8950113421490572
2.939542,0.5905012324361009,0.061869594305318826,0.25935700866476064,0.9117278354061804
2.941843,0.5990364331659532,0.06263618975016702,0.2655433769103055,0.9272159998264258
2.944145,0.6093771307566695,0.06330626908334427,0.27142359808759176,0.9441069979276056
2.946447,0.6181646439592299,0.06404253697380853,0.2771534925641508,0.9593606734971892
2.948748,0.6274855786394177,0.06478072028876021,0.2834886892376582,0.975754988165836
2.95105,0.636967865317551,0.06548825681191339,0.28938688968812115,0.9918430118175856
2.953351,0.6441967090782009,0.06618664186251565,0.2952056816820538,1.0055890326227703
2.955653,0.6529572540998013,0.06644958707964778,0.2992000768728076,1.0186069180522566
2.957955,0.6584354515371322,0.06738782584106177,0.3058793768579466,1.0317026542361405
2.960256,0.6634949565378678,0.06811451660908903,0.3111328205953234,1.0427422937422803
2.962558,0.6703768706485439,0.06845929301682196,0.3147950986565634,1.0536312623219293
2.96486,0.6743805028015335,0.06929399244344456,0.3213580327903089,1.065032528035287
2.967161,0.6794153250603737,0.0697682728290204,0.3268576926853553,1.0760412905747494
2.969463,0.6828709089257238,0.07049826238366483,0.3317890077783165,1.0851581790877052
2.971764,0.6894630293630359,0.07106224848273415,0.3370689210012033,1.0975941988469735
2.974066,0.6944621987724717,0.07163836560355702,0.3424167559227578,1.1085173202987866
2.976368,0.6998736613891225,0.0724052802858198,0.34665686784692634,1.1189358095218689
2.978669,0.7046214325014759,0.07287285668568971,0.35114868959556844,1.128642978782734
2.980971,0.7111111652687037,0.07352750621049621,0.3566668281880465,1.1413054996672465
2.983273,0.718411771815975,0.07410138866941714,0.3611421689362767,1.153655329421669
2.985574,0.7216008734864179,0.07467026974217647,0.3661773642742587,1.162448507502853
2.987876,0.7295135206151316,0.07525447421083507,0.3709488636056493,1.175716858431616
2.990177,0.7374225110413424,0.07583218751873079,0.3756834055421768,1.18893810410225
2.992479,0.742035441248897,0.07640990082662652,0.3802831029298791,1.1987284450054023
2.994781,0.7490846494990863,0.07699091292113944,0.3849701995621902,1.211045761982416
2.997082,0.7566965328469268,0.07757799052652914,0.3896557979217367,1.2239303212951926
2.999384,0.7618959067184027,0.0781685797434791,0.3933405500744476,1.2334050365363294
3.001686,0.7689693406226743,0.07875661506111249,0.3984107051102732,1.24613666079406
3.003987,0.7762201245983421,0.0793436926665022,0.4035792467243156,1.25914306398916
3.006289,0.7824232633068959,0.0797695553775353,0.4074872415189704,1.2696800602034015
3.0085900000000003,0.7894121359657854,0.08034365066139926,0.4118507112341012,1.2816064978612858
3.010892,0.7969134040629098,0.08091380868381688,0.4158201352121096,1.2936473479588364
3.013194,0.8036225389803184,0.08141192546301378,0.4200133012563168,1.305047765699649
3.015495,0.8121001466457483,0.08182246477814761,0.4241245617227191,1.318047173146615
3.0177970000000003,0.8190008013567521,0.08227503701953287,0.4275416224747994,1.3288174608510843
3.020098,0.8260897762466616,0.08267674409953035,0.4315295251502394,1.3402960454964312
3.0224,0.8333478736273355,0.08297469901979339,0.43460148374217816,1.350924056389307
3.024702,0.8382135733954112,0.08323987889882749,0.4377188899413136,1.3591723422355524
3.027003,0.8417080097248559,0.08350090869147223,0.4413881599421224,1.3665970783584505
3.029305,0.8492275613344954,0.08383131941554962,0.4438338405184067,1.376892721268452
3.031607,0.8557447193704956,0.08417077519970644,0.4471125607518774,1.3870280553220793
3.0339080000000003,0.8592268143289925,0.08422515197265444,0.4502229750114442,1.3936749413130909
3.03621,0.8638356307462315,0.08440924554838837,0.4522826006386845,1.4005274769333045
3.038511,0.8685171241257176,0.08440637241165727,0.4546758416682034,1.4075993382055785
3.040813,0.8735034950763928,0.0845880185005462,0.4574990869811982,1.4155906005581371
3.043115,0.8764174298834837,0.0846324989136426,0.4594673179697905,1.4205172467669172
3.045416,0.8816858240147041,0.08439051695340043,0.4614615190196379,1.4275378599877424
3.047718,0.8840274848800729,0.08439966842595135,0.4623709705878253,1.4307981238938496
3.05002,0.8871014004216707,0.08432528610835711,0.4646388561293623,1.43606554265939
3.052321,0.8896313814659449,0.08400104730762803,0.4655937553047464,1.4392261840783194
3.054623,0.8931473009225949,0.08385302755974021,0.4673082787718453,1.4443086072541804
3.056924,0.8927720318282228,0.08351708338714364,0.4674086630470818,1.4436977782624485
3.059226,0.8955186724958007,0.0833991783686967,0.4684519603155846,1.4473698111800817
3.061528,0.8972400651990955,0.08298204148032844,0.4697909167429928,1.450013023422417
3.063829,0.896443361141251,0.0826906841332998,0.4704561498505302,1.4495901951250811
3.066131,0.8985811608420767,0.0822662047843965,0.4708107410715148,1.451658106697988
3.068433,0.8972409793747212,0.08172977951545153,0.4709995234398701,1.4499702823300429
3.070734,0.8961924199319814,0.08140117780339,0.4710135073190074,1.4486071050543787
3.073036,0.8952083098708572,0.08080824751206657,0.4710145061675173,1.4470310635504409
3.075337,0.8937031197030533,0.08022968290439865,0.4710145061675173,1.4449473087749691
3.077639,0.8917312428783021,0.07989714393089077,0.4707533072822005,1.4423816940913932
3.079941,0.8870607196063247,0.07933901051775523,0.4696780468613835,1.4360777769854634
3.082242,0.8856053520101244,0.07855209029084624,0.4697150042562467,1.4338724465572172
3.084544,0.8811341190245615,0.07798725289200473,0.469122187665671,1.4282435595822371
3.086846,0.8773224637529803,0.07730706437403283,0.4682576842804254,1.4228872124074383
3.089147,0.8745547970460098,0.07664720063812172,0.4671649440106868,1.4183669416948184
3.0914490000000003,0.8691794443665765,0.07600915145887274,0.4655443123035105,1.4107329081289597
3.09375,0.8607434316921185,0.07531991788082143,0.4646093900983228,1.4006727396712626
3.096052,0.8592981200278015,0.0745956745996392,0.4627615203551633,1.396655314982604
3.098354,0.8526177816426039,0.07387132490598547,0.4616592910245814,1.3881483975731708
3.100655,0.8475820452081382,0.07300661716239351,0.4596795732781264,1.380268235648658
3.102957,0.840815317226307,0.07235792673599227,0.4583855650336599,1.3715588089959592
3.105259,0.8347977561697814,0.07144810010447478,0.4560737301576909,1.362319586431947
3.10756,0.8274427561727776,0.07067778022312331,0.4539371931951946,1.3520577295910954
3.109862,0.8210421555290609,0.06967867352799842,0.4521627388175067,1.342883567874566
3.112163,0.8142466310150185,0.06891090754596353,0.4504497136231723,1.3336072521841542
3.114465,0.8064368286442021,0.0680987675633037,0.4484370338758933,1.322972630083399
3.116767,0.7997148952680329,0.06715254786652551,0.44551190601489743,1.3123793491494558
3.119068,0.7918676116965605,0.0663707354382496,0.4427510887337662,1.3009894358685763
3.12137,0.7852366387951538,0.06538620725172331,0.4408567725349003,1.2914796185817774
3.123672,0.7774821440496956,0.06442934630779287,0.4386253449639717,1.28053683532146
3.125973,0.7696229761950883,0.06347110200173264,0.4351623371804399,1.2682564153772609
3.128275,0.7617395826863989,0.06253052216594515,0.4332705181028485,1.2575406229551924
3.130576,0.7534425247070555,0.0616076068004304,0.4303164236350679,1.245366555142554
3.132878,0.7456468920584383,0.06070639957910622,0.42747320135187694,1.2338264929894214
3.13518,0.7372725862387187,0.059614714033756774,0.4246374704325096,1.2215247707049852
3.137481,0.7297086971112301,0.058702865565280364,0.42181072914973056,1.210222291826241
3.139783,0.7208160537117081,0.057628738077732125,0.4190763813541095,1.1975211731435498
3.142085,0.7139793912945068,0.05659802687856505,0.4158261283031685,1.1864035464762404
3.144386,0.7036546917772409,0.05564382624642268,0.41220979727338003,1.1715083152970438
3.146688,0.696675875050235,0.05454256357863619,0.4094969247207199,1.1607153633495908
3.148989,0.6872694649490392,0.05363709985845113,0.4069124042015713,1.1478189690090614
3.151291,0.6783868774814005,0.05253807185256662,0.40289353722232696,1.133818486556294
3.153593,0.6690440025861946,0.051463199477717714,0.4003180063397666,1.120825208403679
3.155894,0.6610573072317948,0.05045047198623796,0.3965368653058585,1.1080446445238912
3.158196,0.6518762414223472,0.0493394193710714,0.3937076269018049,1.0949232876952235
3.160498,0.6423354475041657,0.04833148044081016,0.3901472313885661,1.080814159333542
3.162799,0.633957942069756,0.04730715398993445,0.3869294409141941,1.0681945369738846
3.165101,0.6248815493694575,0.04625058456018742,0.3838205249273921,1.054952658857037
3.167402,0.6150683311148011,0.045090050145762894,0.3795754187606745,1.0397338000212386
3.1697040000000003,0.6064755373205263,0.044114779844259065,0.376436537318578,1.0270268544833634
3.172006,0.5972213374610187,0.04307683259702847,0.3729245859580652,1.0132227560161122
3.174307,0.5873395560344308,0.04199781013579019,0.36888973740266384,0.9982271035728848
3.176609,0.5777333985590076,0.0408936743312726,0.3657388697784496,0.9843659426687296
3.1789110000000003,0.56900667803556,0.03990637942048672,0.3621734800226616,0.9710865374787084
3.181212,0.5604435949491222,0.03886821934831308,0.3585976023575207,0.9579094166549559
3.183514,0.5505869533522426,0.037773554253760985,0.3545907215603941,0.9429512291663976
3.1858150000000003,0.5413807477130869,0.03671113213808022,0.3506622503712881,0.9287541302224552
3.188117,0.5328807427448263,0.035643389398823326,0.3472911366506594,0.9158152687943092
3.190419,0.5232558446690753,0.034701745438320615,0.3425535981686025,0.9005111882759984
3.19272,0.5137200787168352,0.03375116283021,0.3387090302543211,0.8861802718013663
3.1950220000000003,0.5047670997260134,0.03261797642096676,0.3352375322584559,0.8726226084054359
3.197323,0.4956513974738074,0.031710703688765815,0.33166764768437385,0.8590297488469469
3.199625,0.4866179710279193,0.03058028400378216,0.3271188915706722,0.8443171466023737
3.201927,0.4773496014462124,0.029717810922092188,0.3226884990053837,0.8297559113736883
3.204228,0.4684011933335193,0.028738390534198983,0.3182855747741152,0.8154251586418334
3.20653,0.4593942779807779,0.027789404113161213,0.3143356283420481,0.8015193104359872
3.208832,0.4498260587938237,0.026835309893490363,0.3101684323590961,0.7868298010464101
3.211133,0.4410252900446899,0.02587397962575598,0.30562966473049263,0.7725289344009385
3.213435,0.4322999407846809,0.024934251089740667,0.3010219765547118,0.7582561684291333
3.215736,0.4229282693572637,0.02400058806460214,0.2968612730870737,0.7437901305089396
3.218038,0.4143656433586389,0.02309661411901839,0.2917451710197965,0.7292074284974538
3.22034,0.4057705641252997,0.02219072474894724,0.2874765919130982,0.7154378807873452
3.222641,0.3965236776707981,0.021428811452846048,0.28282095900884624,0.7007734481324903
3.224943,0.3879578520574831,0.02052398620749012,0.2775115797549198,0.6859934180198929
3.227245,0.3793554594191379,0.019632356108602984,0.27281449463751045,0.6718023101652513
3.229546,0.3710145210097584,0.018893215081407608,0.2676669288421742,0.6575746649333402
3.231848,0.3621748997965301,0.018087247022096097,0.2630792176365896,0.6433413644552157
3.234149,0.35431344650285856,0.017299581907886455,0.258128924421942,0.629741952832687
3.236451,0.34574122166016324,0.016567357691340046,0.2530682584469596,0.6153768377984631
3.238753,0.3375790045856187,0.015827365364372487,0.24783129570999485,0.601237665659986
3.241054,0.3297161800285085,0.015190167484895682,0.2425493847900883,0.5874557323034925
3.2433560000000003,0.3217738221919577,0.014410802543464794,0.237933206401974,0.5741178311373965
3.245658,0.3143100352954892,0.013839261158917378,0.2325608996919292,0.5607101961463357
3.247959,0.3060532010436791,0.013160775240489834,0.2271491384657465,0.5463631147499155
3.250261,0.2987877902579992,0.012545498330146666,0.22179630930164307,0.533129597889789
3.252562,0.2917120709146632,0.011968955559437687,0.2167596156908963,0.5204406421649972
3.254864,0.2850742416960634,0.011435829077109902,0.2122588043056658,0.5087688750788391
3.257166,0.2774591587335325,0.010904724431741038,0.20711123851032956,0.4954751216756031
3.259467,0.2712948724890733,0.010369469699982798,0.2019886439277386,0.4836529861167948
3.261769,0.2642991435129908,0.009843898503133108,0.1969264796799916,0.4710695216961155
3.264071,0.2581513124297952,0.00933556612667006,0.19200365479936385,0.4594905333558291
3.266372,0.2521963724036336,0.008918748475716378,0.1869050325810085,0.4480201534603585
3.2686740000000003,0.2462752568756249,0.008529810892301594,0.18226288413163905,0.4370679518995656
3.270975,0.2403221452007149,0.008069151303080634,0.17748389343642482,0.4258751899402203
3.273277,0.23481515123117275,0.007721501758616586,0.17261550579958207,0.4151521587893714
3.275579,0.2297853569382742,0.007343737484711664,0.16785599265030926,0.4049850870732951
3.27788,0.22472493776191296,0.006995875115304568,0.16346954941945266,0.39519036229667015
3.280182,0.21970199978620766,0.006626517426649927,0.15886136181941696,0.3851898790322745
3.282484,0.21512883621837325,0.0063563361614542655,0.15434556770653918,0.3758307400863666
3.284785,0.21044779992669987,0.006001982631284298,0.15002954329562465,0.3664793258536088
3.287087,0.2060986093871752,0.005764363582374528,0.14598071086108586,0.3578436838306356
3.289388,0.20201315851568052,0.0055119531999231275,0.14158777511491544,0.3491128868305191
3.29169,0.1982664097135278,0.005267949402722004,0.1378545788094785,0.34138893792572833
3.293992,0.1943139713955804,0.005019689106659982,0.13386667613403844,0.3332003366362788
3.296293,0.19088352735993847,0.004775472484515814,0.13007105179673795,0.3257300516411923
3.298595,0.1877405915585962,0.00453476747393189,0.1263877979167918,0.3186631569493199
3.300897,0.18502137615979092,0.0042966163626645066,0.12278944616017998,0.31210743868263546
3.3031980000000005,0.1821805754027604,0.004156151900254789,0.1193189470128246,0.3056556743158397
3.3055,0.18029691652589427,0.003914276352484115,0.11628644293702348,0.3004976358154019
3.307801,0.17878441295308425,0.003754657645200347,0.11284740751772727,0.29538647811601193
3.310103,0.17764215050870466,0.003537682615765943,0.10989431189845657,0.2910741450229272
3.3124050000000005,0.17670374922886814,0.003428503419983845,0.10710802398032504,0.28724027662917706
3.314706,0.1762160365325284,0.003286974832858903,0.10495051119912267,0.28445352256450995
3.317008,0.17592989956166738,0.003132463924208214,0.10255577189683902,0.28161813538271463
3.31931,0.1748287750204467,0.0029879557878806423,0.10092265458329,0.27873938539161736
3.321611,0.17271931476401936,0.002883565153317057,0.09958869239843086,0.2751915723157673
3.323913,0.16974458727781586,0.002686170018642795,0.09859234100988948,0.2710230983063481
3.326214,0.16729642495204666,0.0025932719310036412,0.09840805345982843,0.2682977503428787
3.3285160000000005,0.16341254980603073,0.0024932442077724784,0.09845699703680943,0.2643627910506127
3.330818,0.15860581436581622,0.0023582067814104093,0.09973152773533454,0.2606955488825612
3.3331190000000004,0.15349877223254146,0.002295317010740605,0.10101504807044798,0.25680913731373
3.335421,0.1490503936376225,0.0021488934499256265,0.10233952119446388,0.25353880828201203
3.3377230000000004,0.14460932844770955,0.002054931237571248,0.10364301849977364,0.2503072781850545
3.340024,0.1413470927272064,0.0019914029920723073,0.10491804862255368,0.2482565443418324
3.3423260000000004,0.13849532186266678,0.0018999946790344687,0.1055478226079926,0.24594313914969385
3.344627,0.13577793481511302,0.0018217815124654214,0.10562073854920914,0.2432204548767876
3.3469290000000003,0.13298329992718305,0.001714517741170729,0.10495300832039722,0.239650825988751
3.349231,0.13079567765475372,0.0016440726850228253,0.1031615735180424,0.2356013238578189
3.351532,0.1293951605960986,0.001589057437245686,0.10097759125132988,0.2319618092846742
3.3538339999999995,0.12813222696911944,0.0014980747740939375,0.09866176098132168,0.22829206272453506
3.356135,0.12692003008936964,0.0014014522499514956,0.09645580404739323,0.2247772863867144
3.3584370000000003,0.1259290637110523,0.001403367674438901,0.09498499961668933,0.22231743100218052
3.360739,0.12419852925149998,0.0012771624832132007,0.09441315884481973,0.2198888505795329
3.3630400000000003,0.12230938532087933,0.00123395901977506,0.09488111937166846,0.21842446371232285
3.365342,0.12013319024377195,0.0011709628366337323,0.0962260688901356,0.21753022197054128
3.3676440000000003,0.11898224313094766,0.00111073337775199,0.0980799317243539,0.21817290823305355
3.3699449999999995,0.11722474049043555,0.0010760429120356511,0.1000551546525149,0.2183559380549861
